# file created by code in harbour_fns_1896438.jl
# file created on 2026-03-09 at 15:39:46
# parameter: seed = 1896620
# parameter: T = 30000.0
# parameter: lower_interarrival = 11.0
# parameter: upper_interarrival = 59.0
# parameter: mean_process_times = [11.0, 16.0]
# parameter: max_queue = [9223372036854775807, 4]
# parameter: time_units = hours
id,arrival_time,start_service_times,start_service_times,completion_time
1,0.0,0.0,4.847623372485524,20.606922812845454
2,15.957127635272425,15.957127635272425,20.606922812845454,36.98297525756378
3,68.90803939723553,68.90803939723553,74.74508789448807,89.55752277621853
4,82.68125638281074,82.68125638281074,89.55752277621853,110.12708862138965
5,126.22649167115756,126.22649167115756,126.89129520813772,141.31143611495744
6,149.91106547481084,149.91106547481084,153.58268465403464,170.45974931217737
7,208.0591049353889,208.0591049353889,210.2259446721045,227.73063563418674
8,252.85396575080125,252.85396575080125,264.06614208540714,280.6059599535791
9,289.022376925663,289.022376925663,299.5116518746003,320.9482425703597
10,308.8496554183523,308.8496554183523,320.9482425703597,331.022010318206
11,363.07734342047263,363.07734342047263,378.4143162074446,396.7445543848837
12,415.9635377509126,415.9635377509126,419.66855963733644,438.41833974431177
13,433.9281211740696,433.9281211740696,456.94003135987265,477.18222627245405
14,472.2394615864903,472.2394615864903,483.8585107772566,498.73927591384785
15,498.8498869050455,498.8498869050455,505.1303438456442,522.8246595434867
16,523.2003056014581,523.2003056014581,525.201817924016,542.1032214060431
17,560.9558436417312,560.9558436417312,571.1802547441906,589.9243567034966
18,602.8733031401808,602.8733031401808,617.4311984722013,636.6104199433325
19,655.6966443981379,655.6966443981379,661.5937785881952,677.8067196263377
20,698.4882215271678,698.4882215271678,731.7524331134484,749.761640562969
21,723.7123972550937,731.7524331134484,784.3822590611182,803.3481674553369
22,751.7798960055177,784.3822590611182,804.6225941264564,822.5163922240541
23,773.1352161537698,804.6225941264564,822.5163922240541,839.1907965751869
24,795.4884787110227,806.5500961040494,839.1907965751869,853.1101416674624
25,821.1649829643,821.1649829643,853.1101416674624,867.0938252464812
26,871.955921277131,871.955921277131,881.0915285563852,899.1433323747445
27,892.0328100869622,892.0328100869622,899.1433323747445,909.7679876236352
28,915.2074794728703,915.2074794728703,918.9589572208355,934.7407938212004
29,954.5774181000452,954.5774181000452,957.5163541920982,971.2655206445078
30,967.5244670573081,967.5244670573081,976.4047259311862,994.0716505556098
31,1018.106067559266,1018.106067559266,1035.7117713001094,1050.7512923768472
32,1058.3763802655528,1058.3763802655528,1061.6363780026434,1078.6025636395339
33,1084.258499253477,1084.258499253477,1092.0495731060123,1103.2566494651237
34,1124.5348911548833,1124.5348911548833,1148.3700268279426,1160.6766509201484
35,1150.3552175669804,1150.3552175669804,1160.6766509201484,1181.4380109343597
36,1195.4249529881129,1195.4249529881129,1227.2777864449408,1242.7398160200296
37,1221.059015121726,1227.2777864449408,1242.7762891712225,1261.9902369671643
38,1249.7756428528123,1249.7756428528123,1261.9902369671643,1273.331123040016
39,1273.6700929894325,1273.6700929894325,1288.274270301731,1303.5702939345867
40,1308.6821041337726,1308.6821041337726,1311.6788266725011,1322.9115595985804
41,1367.3436354185794,1367.3436354185794,1378.3881086820547,1397.2298127309914
42,1418.3902234702882,1418.3902234702882,1419.4422822582499,1431.8750067448264
43,1437.623614295656,1437.623614295656,1439.4432081410148,1458.4599937736343
44,1465.7081868587018,1465.7081868587018,1481.8788232982445,1490.3579393056712
45,1487.8229401318615,1487.8229401318615,1496.5847527302114,1511.0305307902481
46,1531.467155196177,1531.467155196177,1545.162649014707,1560.1716590918743
47,1552.7464507327222,1552.7464507327222,1565.5858871418288,1578.4946518032552
48,1570.2958379642048,1570.2958379642048,1578.4946518032552,1592.9170537917803
49,1620.4387458225224,1620.4387458225224,1643.2288822020516,1658.8480076011786
50,1640.1761685060083,1643.2288822020516,1658.8480076011786,1671.8364091247358
51,1665.2599244185908,1665.2599244185908,1671.8364091247358,1688.641580314804
52,1697.0397432218997,1697.0397432218997,1708.5044230214148,1721.8665188364794
53,1709.4717306765485,1709.4717306765485,1721.8665188364794,1739.1753488854065
54,1726.2741531637994,1726.2741531637994,1748.1444421289066,1762.0789289679683
55,1739.5162420454974,1748.1444421289066,1762.0789289679683,1777.9526766030936
56,1762.0127946950163,1762.0127946950163,1777.9526766030936,1796.570894268645
57,1820.9512132093503,1820.9512132093503,1821.3845998862216,1840.0138236132593
58,1849.1029655030347,1849.1029655030347,1852.923162968747,1873.3261044284206
59,1900.0667361803933,1900.0667361803933,1920.528915843187,1931.972453946173
60,1913.292758843678,1920.528915843187,1931.972453946173,1949.3270567842915
61,1937.7432748992267,1937.7432748992267,1952.0126525849053,1970.6964010470667
62,1974.383065668777,1974.383065668777,1982.451668100481,1996.1509846792735
63,2013.4486757573118,2013.4486757573118,2016.7612334970247,2028.1972763229787
64,2054.2209953345523,2054.2209953345523,2057.0815679632656,2073.215145280253
65,2106.9295811177485,2106.9295811177485,2116.2997681037855,2128.902607486202
66,2134.0721262727093,2134.0721262727093,2139.0786314730744,2154.8263420566454
67,2190.694218331408,2190.694218331408,2193.183597639209,2209.2488329578337
68,2239.3358037971198,2239.3358037971198,2265.977866269276,2284.5515244810545
69,2262.2763625334574,2265.977866269276,2284.5515244810545,2299.1865246863345
70,2288.046536677109,2288.046536677109,2314.8263813687536,2327.948046183501
71,2304.340389126447,2314.8263813687536,2327.948046183501,2345.6792556726286
72,2319.2578894046806,2319.2578894046806,2345.6792556726286,2360.961938367206
73,2350.433896559308,2350.433896559308,2360.961938367206,2376.731535420368
74,2367.3523714973608,2367.3523714973608,2376.731535420368,2392.356156096378
75,2392.1191815082407,2392.1191815082407,2394.9577415381127,2408.0479470104538
76,2404.366469852982,2404.366469852982,2416.943830482989,2427.5716285476747
77,2416.803580768838,2416.943830482989,2443.0007009759297,2460.740060672893
78,2465.8038103233407,2465.8038103233407,2471.044503529509,2482.312581578761
79,2500.0119947924136,2500.0119947924136,2512.8292852379373,2525.7082929671387
80,2555.2368987583927,2555.2368987583927,2572.343317175892,2592.2105556803303
81,2568.853321293741,2572.343317175892,2592.2105556803303,2608.5549089595656
82,2605.8998824481246,2605.8998824481246,2624.2858182664954,2644.367596413168
83,2623.8787351891856,2624.2858182664954,2644.367596413168,2661.138351066622
84,2669.4292466886855,2669.4292466886855,2673.8442697123483,2686.403498870657
85,2715.241857526091,2715.241857526091,2723.3011157884507,2742.2083330507844
86,2737.613509173552,2737.613509173552,2772.221467067937,2786.2454308070073
87,2762.59482764798,2772.221467067937,2790.9683994078814,2800.5172635281915
88,2816.96337362911,2816.96337362911,2826.3878317493286,2842.156313600978
89,2839.744259622228,2839.744259622228,2847.129146978973,2866.6926589947916
90,2867.3044989465484,2867.3044989465484,2876.7640803917334,2897.22836648045
91,2910.6275737367027,2910.6275737367027,2912.133466266225,2932.6909961377996
92,2955.911588345085,2955.911588345085,2963.054588814082,2978.139949943062
93,2978.7484132227282,2978.7484132227282,2996.8825385327486,3013.676397904437
94,3003.799620546158,3003.799620546158,3017.238729774867,3035.5421843653603
95,3035.435948078267,3035.435948078267,3038.933298130544,3052.881012453859
96,3061.274504273748,3061.274504273748,3070.948639861513,3087.4533225088358
97,3091.853432473486,3091.853432473486,3095.053008910146,3109.474358089733
98,3122.8401124478205,3122.8401124478205,3131.350472916616,3148.6579650875037
99,3152.2444867818176,3152.2444867818176,3168.8775257262214,3187.6108089812524
100,3181.0943348084265,3181.0943348084265,3187.6108089812524,3203.638242313277
101,3228.357093349821,3228.357093349821,3228.6653121075774,3248.884469789762
102,3285.407414807744,3285.407414807744,3300.5022732218645,3312.6935592087084
103,3336.257621640684,3336.257621640684,3339.564399608376,3358.8701791421154
104,3370.9229020359157,3370.9229020359157,3388.8717404730987,3404.564505250267
105,3391.3680871517827,3391.3680871517827,3404.564505250267,3417.2199191753275
106,3446.104481886008,3446.104481886008,3449.4304686307855,3466.2438634234027
107,3484.592767934085,3484.592767934085,3494.5335014484313,3508.589103775717
108,3536.0887194490565,3536.0887194490565,3544.8670607805534,3555.193943102453
109,3586.041300253809,3586.041300253809,3591.6796570141605,3611.681905592004
110,3604.3256499274457,3604.3256499274457,3611.681905592004,3625.739602026992
111,3627.3182253858417,3627.3182253858417,3637.63275750956,3650.251832109131
112,3677.377735095337,3677.377735095337,3681.0522052123747,3694.7131593198287
113,3709.512499775302,3709.512499775302,3713.1469851302554,3730.3308299744463
114,3750.511362472834,3750.511362472834,3751.3958046929715,3763.1101925150715
115,3782.700855045489,3782.700855045489,3787.9271258500157,3803.858678194349
116,3796.864854943427,3796.864854943427,3810.600966816267,3828.029338110114
117,3828.2131965431877,3828.2131965431877,3832.5589256950548,3849.1740340760143
118,3844.0708031264435,3844.0708031264435,3859.49849454557,3876.326373846819
119,3869.351504784586,3869.351504784586,3885.2386320412634,3898.505783050071
120,3909.7923744034797,3909.7923744034797,3914.790865820838,3930.000305352652
121,3952.5955375421563,3952.5955375421563,3963.972027335668,3977.7343252447718
122,3992.8302341809726,3992.8302341809726,4000.9215880535294,4016.584404471642
123,4033.3562522244215,4033.3562522244215,4033.435761517048,4051.2846863323016
124,4079.2206873837727,4079.2206873837727,4094.122373250051,4108.2316595966
125,4106.752913984114,4106.752913984114,4136.1129109215235,4150.622223657966
126,4161.566983422847,4161.566983422847,4179.693530404248,4197.552677923008
127,4207.474847860389,4207.474847860389,4209.017629226198,4227.130882172896
128,4228.68972976695,4228.68972976695,4229.874149536203,4241.171567592719
129,4257.257435311913,4257.257435311913,4264.795880986114,4283.025228811625
130,4289.65225517366,4289.65225517366,4294.652560782089,4311.7485072463705
131,4326.035719935952,4326.035719935952,4328.160191306974,4338.26251425429
132,4383.7442938532295,4383.7442938532295,4390.313653692256,4402.206934248732
133,4406.481571215499,4406.481571215499,4407.302530741582,4422.979909120573
134,4426.0771385400185,4426.0771385400185,4426.715097058481,4439.818025613579
135,4440.70415685479,4440.70415685479,4464.8839089685725,4483.2865034461765
136,4492.756484276799,4492.756484276799,4496.093894714504,4513.230221832639
137,4506.677531004083,4506.677531004083,4513.230221832639,4533.5527551693585
138,4531.644585507357,4531.644585507357,4534.298894111185,4550.2577253935015
139,4577.840817959369,4577.840817959369,4579.567998685843,4595.2973650415615
140,4628.643963763841,4628.643963763841,4630.029408538824,4647.501468665824
141,4641.463866474061,4641.463866474061,4647.501468665824,4660.596762894777
142,4685.07107505622,4685.07107505622,4685.239874312947,4703.966280329722
143,4708.228002281857,4708.228002281857,4708.401549941551,4727.081050134989
144,4748.663675002919,4748.663675002919,4765.752238025634,4784.229267856683
145,4763.135893477514,4765.752238025634,4784.229267856683,4802.222274093463
146,4783.273768522463,4783.273768522463,4802.222274093463,4815.274565015241
147,4822.196340524542,4822.196340524542,4836.185762394259,4850.980571262571
148,4856.716903404858,4856.716903404858,4892.843818395576,4904.6140940646
149,4893.405117631247,4893.405117631247,4904.6140940646,4914.509599971733
150,4942.48116473123,4942.48116473123,4952.936571928172,4966.75530073679
151,4977.717881564227,4977.717881564227,5048.064381616774,5065.270631135935
152,5004.948420871635,5048.064381616774,5065.270631135935,5082.026548439579
153,5049.345806259507,5057.080323136061,5082.026548439579,5097.1496467556335
154,5101.833678004607,5101.833678004607,5124.125094409515,5137.697730692527
155,5132.947103519627,5132.947103519627,5138.775628501329,5159.005973760492
156,5164.418704934586,5164.418704934586,5167.947561034957,5187.237471189419
157,5206.210677921764,5206.210677921764,5206.8051327596795,5221.974132952782
158,5229.818011645849,5229.818011645849,5244.701083370697,5257.525076522311
159,5279.006741631094,5279.006741631094,5292.908003206386,5305.1652419610455
160,5297.781562050464,5297.781562050464,5305.1652419610455,5323.447393692812
161,5319.082359338601,5319.082359338601,5328.891160678847,5345.813302210246
162,5340.406193364348,5340.406193364348,5352.323140285555,5366.086848654278
163,5372.182782418873,5372.182782418873,5374.434642045574,5395.122386131158
164,5429.045767689118,5429.045767689118,5437.4708414185,5455.66395638577
165,5457.347388724639,5457.347388724639,5460.870624027835,5479.177256338368
166,5489.863554406782,5489.863554406782,5497.478231935926,5511.768200845451
167,5544.543837245493,5544.543837245493,5554.63017571866,5564.673542931502
168,5560.762315839261,5560.762315839261,5595.056630223552,5607.0267437937955
169,5583.647287379238,5595.056630223552,5607.0267437937955,5626.698825899086
170,5641.93644589619,5641.93644589619,5643.641636941869,5659.364651992672
171,5680.742818704281,5680.742818704281,5686.987344030713,5700.958293452379
172,5732.893257247101,5732.893257247101,5741.169182162329,5760.990877969695
173,5756.894534340971,5756.894534340971,5789.526135996622,5805.458055655851
174,5799.21903099031,5799.21903099031,5812.016480615944,5829.636352325998
175,5848.706331647309,5848.706331647309,5878.047604037841,5889.800719246101
176,5885.196391666734,5885.196391666734,5900.866823912315,5916.163390264909
177,5932.140817114137,5932.140817114137,5937.704920464225,5953.955564604269
178,5972.356016240514,5972.356016240514,5976.023724582238,5995.878141799289
179,5995.44631587422,5995.44631587422,6001.281644156309,6015.761325931111
180,6042.116058752843,6042.116058752843,6044.491325707264,6058.620704694571
181,6092.355721188382,6092.355721188382,6099.397238490829,6117.147211825903
182,6134.80397508681,6134.80397508681,6151.126401678859,6169.58529993543
183,6177.703344528293,6177.703344528293,6185.8451305060335,6205.185860933627
184,6218.807506755462,6218.807506755462,6231.908837893889,6246.486177293843
185,6251.582993184797,6251.582993184797,6265.520856779214,6281.427596655582
186,6267.03362515947,6267.03362515947,6281.427596655582,6296.849161649466
187,6282.633678535248,6282.633678535248,6301.084004901276,6317.158542489533
188,6314.352878056534,6314.352878056534,6317.158542489533,6329.002128560931
189,6352.072735611679,6352.072735611679,6360.787202646677,6372.6466453273015
190,6410.815468206278,6410.815468206278,6416.108794508346,6427.875625306021
191,6457.718438489712,6457.718438489712,6462.792594111299,6482.467742185942
192,6482.402969306086,6482.402969306086,6488.382839389691,6505.411308222522
193,6520.294321448368,6520.294321448368,6535.134171896673,6548.143039333871
194,6560.663947064548,6560.663947064548,6560.84089979737,6577.598999703859
195,6583.007274105858,6583.007274105858,6593.7082769053795,6604.384847530549
196,6633.495430990369,6633.495430990369,6650.691812997716,6669.606136751534
197,6689.246146955494,6689.246146955494,6717.107909039941,6728.558361107812
198,6713.515340473048,6717.107909039941,6752.799916288398,6768.163717622471
199,6743.335907985831,6752.799916288398,6768.163717622471,6790.260426875893
200,6758.07817803458,6758.07817803458,6790.260426875893,6805.501357297962
201,6810.142512710124,6810.142512710124,6813.730992646209,6828.835939739987
202,6827.57014955179,6827.57014955179,6828.835939739987,6844.514554702545
203,6864.261506617079,6864.261506617079,6909.963403703875,6923.994122927267
204,6912.993837911518,6912.993837911518,6945.546089435496,6962.760320113184
205,6955.909012100064,6955.909012100064,6963.175025187797,6979.696153657622
206,7012.637002772993,7012.637002772993,7019.407134854776,7037.449468749381
207,7026.929316523611,7026.929316523611,7040.315828973574,7050.943421013281
208,7070.646272409511,7070.646272409511,7091.943935934915,7108.140187097672
209,7087.722299795021,7091.943935934915,7108.140187097672,7123.734060527399
210,7131.059430681225,7131.059430681225,7149.783937943426,7163.042436067149
211,7161.920942471662,7161.920942471662,7163.667167686935,7179.4976900879265
212,7187.271884831298,7187.271884831298,7189.277970460367,7201.710465943182
213,7243.4556981195565,7243.4556981195565,7245.860115439497,7258.209863626383
214,7256.934154293755,7256.934154293755,7273.031306144957,7290.5339453495535
215,7274.903308935771,7274.903308935771,7290.5339453495535,7306.121342829728
216,7293.983162684741,7293.983162684741,7334.940679341412,7351.172961837333
217,7328.73394998973,7334.940679341412,7351.172961837333,7365.642082799558
218,7387.169908316808,7387.169908316808,7399.407198573264,7411.367041816858
219,7400.635719715636,7400.635719715636,7412.5548529587095,7428.026992825116
220,7426.057618441441,7426.057618441441,7450.646357690122,7467.776442487295
221,7455.267152286136,7455.267152286136,7476.658900608509,7493.911836351731
222,7485.533325688443,7485.533325688443,7504.8266342934,7523.9199531037975
223,7500.469608182709,7504.8266342934,7523.9199531037975,7534.690659217115
224,7546.236095102042,7546.236095102042,7546.396194423708,7559.618880056991
225,7582.769816411246,7582.769816411246,7626.540243353287,7644.663994458711
226,7611.518889002489,7626.540243353287,7647.8030342012835,7664.970901726568
227,7658.79013519438,7658.79013519438,7669.9500392788905,7685.341453751523
228,7687.964645381965,7687.964645381965,7690.610024207551,7709.200941390925
229,7709.932477716924,7709.932477716924,7712.309539605977,7727.56377530557
230,7738.54839009862,7738.54839009862,7744.928156808254,7762.098442535106
231,7782.334746553873,7782.334746553873,7784.668206043977,7798.4268173566625
232,7827.706596767373,7827.706596767373,7859.042360944275,7874.921224681775
233,7884.904501962902,7884.904501962902,7891.490565190522,7914.316356859389
234,7911.739152805351,7911.739152805351,7926.155062668192,7939.200196257759
235,7939.511578365842,7939.511578365842,7942.146383490553,7960.883745421212
236,7990.292990381218,7990.292990381218,8002.886207327832,8019.958960608181
237,8016.225507940896,8016.225507940896,8025.1987091519095,8039.873340168878
238,8049.10387105907,8049.10387105907,8056.254303118191,8071.629646721377
239,8085.275793538359,8085.275793538359,8086.454778752716,8103.232877085046
240,8096.795455006868,8096.795455006868,8116.069941981885,8137.10548441737
241,8146.514386536213,8146.514386536213,8149.380108652865,8166.282419621095
242,8175.153983494848,8175.153983494848,8191.321008829598,8209.008062221092
243,8209.966766969537,8209.966766969537,8219.617590814021,8235.40861779175
244,8225.229306210143,8225.229306210143,8253.58155331956,8269.006396381224
245,8267.503545978025,8267.503545978025,8271.241626623736,8287.341291277467
246,8291.990055556877,8291.990055556877,8294.452632672777,8311.84874530156
247,8322.752787026437,8322.752787026437,8333.758480606111,8347.205546373276
248,8355.624596648631,8355.624596648631,8357.520635138342,8372.941324392588
249,8379.053232837881,8379.053232837881,8386.962481003175,8404.922106341483
250,8424.293268966412,8424.293268966412,8436.799381714496,8453.351932833742
251,8436.289319262369,8436.799381714496,8453.351932833742,8472.885798557452
252,8475.551656299938,8475.551656299938,8487.651739393981,8508.18604580688
253,8509.869776008469,8509.869776008469,8519.383298566929,8536.876667135277
254,8553.488123635943,8553.488123635943,8558.262943031492,8577.225049492541
255,8587.896720031886,8587.896720031886,8593.170178393331,8607.103244951653
256,8641.464800650063,8641.464800650063,8648.586055567253,8660.732812939426
