# file created by code in harbour_fns_1896438.jl
# file created on 2026-03-09 at 15:39:43
# parameter: seed = 1896575
# parameter: T = 30000.0
# parameter: lower_interarrival = 11.0
# parameter: upper_interarrival = 59.0
# parameter: mean_process_times = [11.0, 16.0]
# parameter: max_queue = [9223372036854775807, 4]
# parameter: time_units = hours
id,arrival_time,start_service_times,start_service_times,completion_time
1,0.0,0.0,4.006204442911955,15.757392101888257
2,37.276842849389546,37.276842849389546,44.98580439985653,62.84095993648353
3,66.28308893309529,66.28308893309529,73.27951329464038,85.30618769573083
4,99.60237494261895,99.60237494261895,110.13964599091182,126.42502389967879
5,129.20280654694568,129.20280654694568,137.6189498178744,153.30722415046816
6,175.74974907126756,175.74974907126756,186.85260225403917,206.3047232293967
7,218.91078946599362,218.91078946599362,232.15208009506208,248.0386405259341
8,268.00727584712314,268.00727584712314,269.754511565962,285.2471643798955
9,321.7570700248034,321.7570700248034,323.3045066256793,342.65336008406246
10,364.3952686633352,364.3952686633352,365.58771810474025,382.07925491528437
11,391.4216176279622,391.4216176279622,399.76379827969305,418.79274708327813
12,408.0365996211186,408.0365996211186,428.99371671939684,442.18300704678757
13,438.8468517448648,438.8468517448648,458.111180702959,475.06505843295514
14,459.00376378834267,459.00376378834267,475.06505843295514,489.12041616920504
15,513.0713137825305,513.0713137825305,516.7127177369775,532.4917230324356
16,557.2497240202972,557.2497240202972,558.545123259418,571.1352788381126
17,587.7437376811745,587.7437376811745,599.8544772634032,616.2705371550842
18,639.7894904857033,639.7894904857033,652.323206864959,668.5245057200362
19,691.6117236936542,691.6117236936542,701.4874793094772,718.0561417933782
20,730.0958420448364,730.0958420448364,732.0184472773313,747.2359344317629
21,748.7802761175881,748.7802761175881,752.5383121093047,772.7825232568954
22,780.0600437423601,780.0600437423601,785.1293881557573,800.7958899326975
23,803.1762301967158,803.1762301967158,804.7229409272,820.4745264642652
24,853.2372159829663,853.2372159829663,864.8977485525024,877.2075740128381
25,888.9130426579003,888.9130426579003,905.0651281638455,923.2672404622293
26,913.1168023639791,913.1168023639791,923.2672404622293,940.1022131003181
27,952.270523645042,952.270523645042,991.498481985051,1005.9189417342263
28,995.7271778243643,995.7271778243643,1005.9189417342263,1024.6323904113192
29,1051.0862610130166,1051.0862610130166,1057.9832775850282,1069.8148593399962
30,1078.9346022334375,1078.9346022334375,1080.2324539890697,1097.3676913220168
31,1098.6294981089177,1098.6294981089177,1117.6928838433516,1132.8276406898894
32,1151.397127403277,1151.397127403277,1160.9254182627617,1177.0144626668
33,1204.8544889369007,1204.8544889369007,1246.9967869048064,1265.2976875763543
34,1250.0363400813997,1250.0363400813997,1265.2976875763543,1284.6346935859501
35,1274.9857640037224,1274.9857640037224,1307.3200862777712,1322.089466446845
36,1293.5792924149441,1307.3200862777712,1322.089466446845,1342.4662573601902
37,1327.2754730642632,1327.2754730642632,1349.2749146963056,1360.1559077564311
38,1344.4745002799868,1349.2749146963056,1360.1559077564311,1375.7340180437454
39,1362.226428812198,1362.226428812198,1375.7340180437454,1394.70166471963
40,1414.5274493732636,1414.5274493732636,1416.889096578302,1439.5015456355725
41,1446.4912954449126,1446.4912954449126,1447.479674965247,1463.2258887636265
42,1494.7827118963771,1494.7827118963771,1505.6072084528146,1520.0527750004671
43,1514.5675875851705,1514.5675875851705,1520.0527750004671,1531.8692506648456
44,1562.233713334125,1562.233713334125,1562.446977079544,1580.7273043632008
45,1573.579322140114,1573.579322140114,1580.7273043632008,1594.1460550079937
46,1607.082625519842,1607.082625519842,1607.8506535567694,1623.3186980126154
47,1650.8298430427312,1650.8298430427312,1652.4727428805056,1667.1695227117905
48,1706.9776833003066,1706.9776833003066,1713.6730634106766,1732.1194525032454
49,1741.4774778258022,1741.4774778258022,1748.05705958463,1764.2803207314437
50,1755.1943596662356,1755.1943596662356,1769.3986053930905,1789.2305381034787
51,1770.4493894650122,1770.4493894650122,1789.2305381034787,1805.004832785279
52,1791.6460899840645,1791.6460899840645,1805.004832785279,1818.593319480533
53,1848.2272783782605,1848.2272783782605,1870.718977364389,1884.5185269791534
54,1889.1141241283558,1889.1141241283558,1895.7942176139197,1906.3787114471222
55,1933.1428311584923,1933.1428311584923,1947.2248478405995,1965.062986111295
56,1990.1724436370005,1990.1724436370005,1999.0632781763447,2018.491146374879
57,2007.6777877480595,2007.6777877480595,2021.022959043052,2037.702614716956
58,2021.8964269973299,2021.8964269973299,2037.702614716956,2056.1400918006743
59,2054.9470229675285,2054.9470229675285,2059.185814484034,2075.5049673303984
60,2085.0183026703635,2085.0183026703635,2087.008067271538,2099.8507345285248
61,2131.49128512404,2131.49128512404,2137.527561647897,2153.197310774749
62,2183.4590332838093,2183.4590332838093,2186.889532167527,2203.8285704590453
63,2202.3989308471164,2202.3989308471164,2210.806506215921,2227.6560693029683
64,2217.5101950079566,2217.5101950079566,2227.6560693029683,2243.811827846335
65,2252.078740183999,2252.078740183999,2271.2641503267823,2291.7370466840534
66,2268.4059480511196,2271.2641503267823,2291.7370466840534,2301.4863777405376
67,2284.8535437290047,2286.9454265022423,2301.4863777405376,2315.0135921224846
68,2318.7971340453537,2318.7971340453537,2322.3692827188847,2336.9655442737817
69,2362.6501476849558,2362.6501476849558,2370.4465386649786,2384.7575623728326
70,2388.452699563351,2388.452699563351,2389.1668513376453,2403.1129534374572
71,2434.0123043214085,2434.0123043214085,2441.6017994446393,2455.9586812777156
72,2454.746910784528,2454.746910784528,2460.341806750608,2474.385734071047
73,2504.1522035883686,2504.1522035883686,2505.699091996678,2523.228893667526
74,2535.396280126018,2535.396280126018,2536.8826369890885,2555.3719090060213
75,2551.6573192109536,2551.6573192109536,2562.61614900509,2582.008176135691
76,2567.7299462947963,2567.7299462947963,2582.008176135691,2601.8345012728346
77,2614.672135759581,2614.672135759581,2627.462671417264,2643.366159474484
78,2637.4211985270767,2637.4211985270767,2668.578206512532,2684.1321843195515
79,2675.9317659091776,2675.9317659091776,2684.1321843195515,2700.53110378982
80,2728.831128144126,2728.831128144126,2757.4279618531136,2770.1859142487137
81,2762.7345581546047,2762.7345581546047,2777.772019032185,2795.3284468751754
82,2773.8913247903374,2777.772019032185,2795.3284468751754,2804.833174576716
83,2793.361219653385,2793.361219653385,2804.833174576716,2821.5297089175197
84,2813.1877474813928,2813.1877474813928,2823.904196900262,2840.0800256789216
85,2828.8263184581683,2828.8263184581683,2840.0800256789216,2857.777967514991
86,2868.5106039592,2868.5106039592,2883.078770849908,2900.9634023379463
87,2927.1631660169746,2927.1631660169746,2951.152787479673,2967.0999286833785
88,2941.8805276229355,2951.152787479673,2967.0999286833785,2985.8268413344917
89,2957.0985385471076,2957.0985385471076,2985.8268413344917,3006.827062006348
90,2969.4814671545273,2969.4814671545273,3006.827062006348,3021.6323112950713
91,2984.6647764242225,2993.9011485508163,3021.6323112950713,3033.6374778474096
92,3015.671051655179,3015.671051655179,3048.7308445268445,3067.2096612308305
93,3041.525340991353,3048.7308445268445,3067.2096612308305,3083.480969927722
94,3084.7468508657444,3084.7468508657444,3092.5598161398593,3112.7371262958095
95,3110.8046155621464,3110.8046155621464,3115.9715970240927,3129.9371550745577
96,3126.905209031279,3126.905209031279,3129.9371550745577,3150.70699746303
97,3160.9829072528696,3160.9829072528696,3179.247070252615,3193.0686756829145
98,3174.680859513569,3179.247070252615,3193.0686756829145,3208.698350620645
99,3203.2092199186536,3203.2092199186536,3208.698350620645,3223.688500355103
100,3249.4564190531087,3249.4564190531087,3250.9427816292446,3263.7953123725933
101,3305.78214837641,3305.78214837641,3308.945284530872,3320.7959493453504
102,3344.547057299529,3344.547057299529,3348.5090404684383,3361.518078444045
103,3391.40077814104,3391.40077814104,3392.533900066745,3407.905912915468
104,3410.5134095284084,3410.5134095284084,3434.786034870523,3454.0874065366957
105,3450.859844771367,3450.859844771367,3465.414304182971,3485.5460441612972
106,3471.863899199367,3471.863899199367,3485.5460441612972,3495.414169401508
107,3490.8937996753843,3490.8937996753843,3501.5749273167194,3518.3305494168108
108,3544.345757509059,3544.345757509059,3552.4254555355133,3576.0530511419074
109,3593.2066318463676,3593.2066318463676,3612.1423156752676,3625.561283655183
110,3607.4917883257226,3612.1423156752676,3625.6916133987634,3645.4640319551336
111,3620.5457853683247,3625.6916133987634,3645.4640319551336,3665.488478590925
112,3631.9132044379394,3636.305538373997,3665.488478590925,3681.8308687981826
113,3683.8352759985105,3683.8352759985105,3704.4702705913173,3716.9395035685525
114,3736.9722390968236,3736.9722390968236,3740.7941291315133,3760.5308857058876
115,3775.921674669585,3775.921674669585,3778.7035468739273,3794.556131738483
116,3807.0479976152833,3807.0479976152833,3814.04807151181,3831.725662950352
117,3863.0427161028683,3863.0427161028683,3868.45833936744,3884.414837285717
118,3903.7179915443435,3903.7179915443435,3906.7745563859826,3925.3640592415964
119,3933.157444349245,3933.157444349245,3936.940900509434,3956.5084455882134
120,3980.590295599199,3980.590295599199,4006.074919394365,4020.128073698317
121,4028.933309050317,4028.933309050317,4038.451544198126,4051.2130071219685
122,4081.198567552043,4081.198567552043,4090.517971041163,4104.747573893764
123,4126.601739592792,4126.601739592792,4127.94080859656,4143.052147931044
124,4182.981911310314,4182.981911310314,4184.129388868244,4196.675812707273
125,4218.799365332284,4218.799365332284,4224.802992407487,4236.718329693037
126,4236.901146927359,4236.901146927359,4239.938760895131,4258.599432760161
127,4283.47285688297,4283.47285688297,4284.428733795809,4301.232635010334
128,4297.617438364549,4297.617438364549,4318.2796007010065,4335.48608472827
129,4342.8380387397465,4342.8380387397465,4343.620047633478,4358.5993251592145
130,4356.78739121688,4356.78739121688,4359.894235814165,4372.625216193662
131,4381.552522439752,4381.552522439752,4391.161660408232,4405.061063607872
132,4420.8997513954055,4420.8997513954055,4432.593188071393,4446.813767498601
133,4461.354328825257,4461.354328825257,4477.253698002537,4498.24329413982
134,4511.227039105672,4511.227039105672,4542.548652318257,4555.381234363663
135,4531.420875910636,4542.548652318257,4560.957098103752,4576.967262532103
136,4553.482185262637,4560.957098103752,4592.603072071618,4606.808548905047
137,4585.724856849578,4592.603072071618,4606.808548905047,4626.058396638135
138,4604.485427642377,4604.485427642377,4626.058396638135,4644.775225527906
139,4654.702887001313,4654.702887001313,4657.361954546752,4670.164961735377
140,4667.613168024118,4667.613168024118,4684.461093699151,4702.514431956276
141,4708.326891888653,4708.326891888653,4711.974406381939,4730.152715687029
142,4742.004648158141,4742.004648158141,4743.168894023945,4759.485659479161
143,4773.823748011442,4773.823748011442,4777.62054526285,4795.8331731612225
144,4828.085054413774,4828.085054413774,4853.145284572896,4872.607939783204
145,4846.48362356997,4853.145284572896,4872.607939783204,4886.512301712789
146,4903.807867979225,4903.807867979225,4914.915615681574,4935.18289014205
147,4953.493905908189,4953.493905908189,4960.087615117085,4974.002431465326
148,5006.803997451067,5006.803997451067,5008.627517586505,5020.557852795519
149,5054.536038431656,5054.536038431656,5059.183948745278,5074.740179918135
150,5081.8550517314325,5081.8550517314325,5082.934438149862,5098.985394034207
151,5115.886880740967,5115.886880740967,5137.01350267585,5148.853288087983
152,5155.849823454439,5155.849823454439,5166.888311097024,5183.466792980247
153,5193.748788797741,5193.748788797741,5228.600865488769,5243.501716426393
154,5251.035863762212,5251.035863762212,5252.441035897927,5267.479602673464
155,5285.0435053878355,5285.0435053878355,5285.3162347802245,5301.611530738821
156,5317.426600531799,5317.426600531799,5318.624196045078,5332.768628877035
157,5346.891937695995,5346.891937695995,5348.639883168058,5368.692682445708
158,5373.159894321494,5373.159894321494,5378.171001801458,5394.555476181104
159,5413.720556760548,5413.720556760548,5415.920657368727,5429.040790832257
160,5445.129141063829,5445.129141063829,5445.6794072226785,5457.900440041264
161,5478.475844402593,5478.475844402593,5496.579178458335,5514.068577789457
162,5529.425750632144,5529.425750632144,5539.483108498295,5555.380117977291
163,5582.686665688698,5582.686665688698,5585.875547797768,5603.64655457382
164,5604.195781347894,5604.195781347894,5608.792590532474,5626.725607338413
165,5638.687766480533,5638.687766480533,5671.235067974369,5690.642740874408
166,5656.693529433591,5671.235067974369,5690.642740874408,5703.444927284374
167,5685.543444197756,5685.543444197756,5703.444927284374,5722.4751890746475
168,5742.562813200788,5742.562813200788,5743.126893112373,5751.7248991835495
169,5784.286372003863,5784.286372003863,5816.7513347442255,5837.635175368834
170,5817.824052997115,5817.824052997115,5837.635175368834,5853.000569206627
171,5829.276103619172,5829.276103619172,5866.252893297678,5885.7067204563755
172,5880.871860943619,5880.871860943619,5885.7067204563755,5906.314445349431
173,5908.640116832954,5908.640116832954,5910.194955017945,5928.607482837365
174,5952.371992219473,5952.371992219473,5952.590970358688,5963.474221025035
175,5971.727892004968,5971.727892004968,5972.149066375226,5984.809690160137
176,6003.080165107097,6003.080165107097,6022.800543643946,6040.391816074011
177,6029.438087053635,6029.438087053635,6040.391816074011,6052.565746002661
178,6073.0580739544375,6073.0580739544375,6080.658996157803,6096.457289928545
179,6108.130344665327,6108.130344665327,6133.575632067626,6147.368770431935
180,6149.797871465664,6149.797871465664,6154.005936696536,6166.0104198690315
181,6170.503505202175,6170.503505202175,6173.554845518889,6187.095925987008
182,6182.338354588467,6182.338354588467,6197.833777532018,6216.206894801677
183,6238.4442092187755,6238.4442092187755,6262.952374415735,6278.740085586206
184,6287.312671607713,6287.312671607713,6305.055957023578,6324.297103529358
185,6344.078823685524,6344.078823685524,6344.681621431021,6359.875800477268
186,6379.242146685738,6379.242146685738,6379.81195880532,6390.789964085319
187,6407.137304814602,6407.137304814602,6422.337865256067,6434.294908176696
188,6440.3101787678615,6440.3101787678615,6442.16191749241,6460.393739184555
189,6471.097175988437,6471.097175988437,6473.551013281126,6494.691244328307
190,6504.593987388909,6504.593987388909,6508.0517260186525,6522.487763431777
191,6519.329674015462,6519.329674015462,6527.312632933806,6543.6831580656735
192,6543.851573357822,6543.851573357822,6545.924142495683,6557.276064890651
193,6589.741624813009,6589.741624813009,6600.372272156112,6610.240094578938
194,6623.479062014942,6623.479062014942,6633.61673662165,6647.719929451466
195,6663.94792977096,6663.94792977096,6665.4820754330785,6681.417756837013
196,6697.505235341786,6697.505235341786,6726.652258223608,6744.869556081709
197,6719.12374761962,6726.652258223608,6744.869556081709,6760.020355133875
198,6752.096701792662,6752.096701792662,6768.177080417044,6785.144450010014
199,6766.476014464249,6768.177080417044,6790.651829899302,6807.719452565105
200,6819.788393135287,6819.788393135287,6822.056090546157,6838.1924810146675
201,6874.197503716803,6874.197503716803,6918.423496251143,6936.152769748093
202,6889.1778221716495,6918.423496251143,6938.395274933748,6954.367687425244
203,6930.759399441208,6938.395274933748,6954.367687425244,6970.909726924165
204,6979.287142651258,6979.287142651258,6979.482052606215,6991.817724191481
205,7017.6144577393625,7017.6144577393625,7021.520588978961,7031.274705181886
206,7036.859087022596,7036.859087022596,7041.3332858419835,7061.962888672809
207,7052.666110273492,7052.666110273492,7077.8679993538535,7094.6793220325735
208,7087.638201040936,7087.638201040936,7094.6793220325735,7109.039586061431
209,7107.680162877301,7107.680162877301,7161.146455683301,7175.709427484762
210,7154.249986143808,7161.146455683301,7175.709427484762,7195.76528040888
211,7174.846892143033,7174.846892143033,7195.76528040888,7211.070108757452
212,7204.53871883224,7204.53871883224,7224.111348616176,7238.3577731881405
213,7221.698292668088,7224.111348616176,7269.016862170717,7286.355922185595
214,7269.245325275722,7269.245325275722,7286.355922185595,7301.265977893828
215,7298.529487431447,7298.529487431447,7301.265977893828,7315.215948093955
216,7343.36295931491,7343.36295931491,7350.737856633879,7364.587583939871
217,7379.847229036848,7379.847229036848,7380.0458265885545,7398.973998708671
218,7403.442037163893,7403.442037163893,7404.916658854142,7419.856020922382
219,7453.358714138614,7453.358714138614,7460.954477209324,7476.028553194235
220,7504.11584562205,7504.11584562205,7506.511318988637,7524.077502009866
221,7563.097300587031,7563.097300587031,7565.38745060345,7577.384272191465
222,7598.247465035168,7598.247465035168,7612.400095059394,7629.673793904724
223,7616.886650266098,7616.886650266098,7632.13089433227,7650.91129528156
224,7659.070161467825,7659.070161467825,7668.457596915518,7686.784046732886
225,7679.742935888888,7679.742935888888,7711.2759279928,7727.232925574624
226,7692.390679453967,7711.2759279928,7727.232925574624,7743.6372937077085
227,7714.868976183338,7717.612880869137,7743.6372937077085,7759.335159636918
228,7748.014438653203,7748.014438653203,7759.335159636918,7776.048612233298
229,7776.352938418755,7776.352938418755,7787.6789063942915,7805.323263954838
230,7824.087492238706,7824.087492238706,7836.777514699081,7857.889076470174
231,7865.132600570762,7865.132600570762,7865.375512709524,7876.5118501980605
232,7899.131306429207,7899.131306429207,7910.1395838162825,7919.450203968199
233,7954.726335927814,7954.726335927814,7956.484036225908,7972.017049230735
234,7974.6310307989515,7974.6310307989515,7986.1022400280035,8003.316948834361
235,7999.476750273987,7999.476750273987,8029.170512282639,8041.003911976967
236,8027.85725806865,8029.170512282639,8044.228779231362,8063.023701432701
237,8077.554381698738,8077.554381698738,8085.093542281141,8096.898633744523
238,8103.651394237638,8103.651394237638,8117.842872502186,8133.551302170157
239,8150.096698905661,8150.096698905661,8158.00738830415,8174.197783605634
240,8175.873745346669,8175.873745346669,8193.52822897347,8211.967573196578
241,8195.791586804533,8195.791586804533,8211.967573196578,8226.93063389137
242,8228.009442153887,8228.009442153887,8233.567186475013,8244.493616943304
243,8242.932739263088,8242.932739263088,8251.956365553571,8269.758773331914
244,8268.527023934967,8268.527023934967,8281.841521126822,8293.816273711818
245,8311.247830983551,8311.247830983551,8316.685025293527,8332.416423159228
246,8346.296095593032,8346.296095593032,8348.440793263771,8364.413938994297
247,8401.589190768502,8401.589190768502,8417.283994071327,8433.984737419452
248,8427.082604854302,8427.082604854302,8457.890655842695,8473.083309039283
249,8448.387843511664,8457.890655842695,8483.473360704726,8500.296082114362
250,8473.944613388174,8483.473360704726,8500.296082114362,8516.157734189468
251,8500.23216724604,8500.23216724604,8516.157734189468,8527.887308771034
252,8550.340448527508,8550.340448527508,8564.44795125692,8581.047634697685
253,8587.124916503713,8587.124916503713,8594.034312586075,8610.07120345755
254,8641.568769905462,8641.568769905462,8642.575146474472,8662.909841749333
255,8653.382711552687,8653.382711552687,8662.909841749333,8678.500262894706
256,8711.410512202558,8711.410512202558,8715.083164165935,8727.276066833521
