# file created by code in harbour_fns_1896438.jl
# file created on 2026-03-09 at 15:39:35
# parameter: seed = 1896455
# parameter: T = 30000.0
# parameter: lower_interarrival = 11.0
# parameter: upper_interarrival = 59.0
# parameter: mean_process_times = [11.0, 16.0]
# parameter: max_queue = [9223372036854775807, 4]
# parameter: time_units = hours
id,arrival_time,start_service_times,start_service_times,completion_time
1,0.0,0.0,3.345093223761505,23.27191550549546
2,46.129416753701854,46.129416753701854,58.496585367581204,75.63362555981706
3,59.28322102872134,59.28322102872134,75.63362555981706,88.43637649136778
4,106.1276217585883,106.1276217585883,109.09355243434806,121.19286086769331
5,139.10733802682137,139.10733802682137,145.15036534476596,160.49470939209147
6,159.8580707899436,159.8580707899436,163.72077693920698,182.80054875995796
7,186.73561355113662,186.73561355113662,192.77784163720412,209.09689637806383
8,217.71361522603135,217.71361522603135,226.5767573357994,243.23475512667247
9,243.1187974835816,243.1187974835816,253.5249745301971,268.6264483528884
10,300.7535905811543,300.7535905811543,304.05461081609093,322.01525405094685
11,313.36146841555296,313.36146841555296,322.01525405094685,336.02977547473756
12,357.76611007028487,357.76611007028487,363.31243676534604,380.1442070311593
13,409.4498073361783,409.4498073361783,441.7840053363236,459.1451745424836
14,457.9422081103987,457.9422081103987,469.5934423247204,484.6104104942823
15,501.9789688086172,501.9789688086172,502.9576917690386,518.9476857996036
16,523.8817604849727,523.8817604849727,524.2278520662237,540.5347686360869
17,548.2507398893626,548.2507398893626,551.0868239228619,563.2625392840081
18,563.092342736834,563.092342736834,576.7017128303635,591.3208880881687
19,617.8257846482816,617.8257846482816,620.2228525328649,634.4149312832801
20,651.0766193692621,651.0766193692621,651.7394698361925,671.4025391514701
21,678.7431817503418,678.7431817503418,702.9415608499332,721.5367607897799
22,713.5547159235797,713.5547159235797,721.5367607897799,736.7710679317183
23,763.200795124103,763.200795124103,771.7668017230541,787.3489976285401
24,788.670861571577,788.670861571577,818.4473756637282,832.888257837301
25,811.9920704541905,818.4473756637282,832.888257837301,852.888196367802
26,843.2067651580247,843.2067651580247,865.9452576048927,882.5981740841264
27,872.9235401989295,872.9235401989295,882.5981740841264,894.098777052647
28,900.7961881970298,900.7961881970298,923.0979689687776,934.9472538730796
29,918.3677629006314,923.0979689687776,934.9472538730796,955.0960167405644
30,969.9528834894738,969.9528834894738,976.5131907517933,996.8299480226906
31,1009.1556082973262,1009.1556082973262,1009.2218043220388,1024.470748835523
32,1058.248379222947,1058.248379222947,1069.8270241536295,1088.2405697804925
33,1083.1942548770708,1083.1942548770708,1088.2405697804925,1106.966497234745
34,1121.8575065035386,1121.8575065035386,1122.143211332293,1138.356718458571
35,1134.8798201588095,1134.8798201588095,1138.8745220081692,1154.3005252070404
36,1154.2465214166264,1154.2465214166264,1211.0366843114734,1228.8110325449825
37,1186.923663270061,1211.0366843114734,1228.8110325449825,1241.6574779782852
38,1221.4090891114834,1222.6364452253215,1241.6574779782852,1256.0972422097827
39,1265.4091011089151,1265.4091011089151,1278.5858152746116,1296.1239445760934
40,1298.9768623456755,1298.9768623456755,1300.8727770453515,1318.5822633366083
41,1323.5461879664279,1323.5461879664279,1352.870320072171,1369.4763511787144
42,1360.9276491848937,1360.9276491848937,1369.4763511787144,1384.74184630663
43,1414.1831511761554,1414.1831511761554,1428.2391336489497,1448.5765820961876
44,1466.0667520875331,1466.0667520875331,1473.0467046340211,1488.4481193598194
45,1512.6946423144007,1512.6946423144007,1523.5948646089903,1537.995063394696
46,1567.155514535229,1567.155514535229,1571.0881079592036,1590.2427527350262
47,1606.8171906883692,1606.8171906883692,1607.9719329328618,1620.7562654221003
48,1637.8942390155253,1637.8942390155253,1642.7535086981773,1654.0337997151337
49,1662.6790646534953,1662.6790646534953,1670.8908392205212,1684.6327172092012
50,1676.3411709124553,1676.3411709124553,1684.7002060420064,1699.2546689294686
51,1723.17594082515,1723.17594082515,1755.1968270786695,1770.6108478190647
52,1764.1509925861844,1764.1509925861844,1770.6108478190647,1783.9329507809316
53,1794.4633834858398,1794.4633834858398,1795.0863207411155,1809.5815610473214
54,1835.5753579368543,1835.5753579368543,1843.3354962737308,1858.269049611566
55,1865.7017133628265,1865.7017133628265,1876.3971231782473,1893.728460342835
56,1888.2250129877218,1888.2250129877218,1893.728460342835,1906.4910882887339
57,1931.0916271134502,1931.0916271134502,1958.727223986348,1974.8324666321762
58,1988.155298244283,1988.155298244283,2005.0430222430118,2019.19509017369
59,2021.4374283287227,2021.4374283287227,2029.027756521984,2043.9465768190412
60,2080.4293934703583,2080.4293934703583,2090.128553748124,2105.084156134974
61,2125.084682529865,2125.084682529865,2144.549509767685,2162.181176484572
62,2153.926983730217,2153.926983730217,2184.4180360489795,2201.092125229222
63,2167.198314559583,2184.4180360489795,2201.092125229222,2220.845106821137
64,2203.4073183744595,2203.4073183744595,2220.845106821137,2236.7038326999213
65,2237.6024219314254,2237.6024219314254,2248.3699439311645,2265.298179069131
66,2273.088730364306,2273.088730364306,2279.584734180224,2296.4766359577225
67,2331.733493987933,2331.733493987933,2336.40433357217,2353.3920816544532
68,2360.548444203418,2360.548444203418,2361.36392576371,2374.3772539769157
69,2396.168004251725,2396.168004251725,2396.50788819845,2410.2252617516815
70,2440.080565298632,2440.080565298632,2442.0657582597732,2455.538172030544
71,2451.6821762132745,2451.6821762132745,2455.538172030544,2466.945486667403
72,2473.4504350921425,2473.4504350921425,2476.1052512260276,2495.05451461073
73,2489.771415336247,2489.771415336247,2495.401409039616,2511.2518892849725
74,2511.2170961394877,2511.2170961394877,2516.6932951159915,2533.3209635016624
75,2552.796079421904,2552.796079421904,2559.8180355344457,2582.376669075245
76,2595.069609810018,2595.069609810018,2612.770655245316,2625.315402859938
77,2638.025342071947,2638.025342071947,2666.8328100826498,2683.0279695769077
78,2667.6458793008956,2667.6458793008956,2683.0279695769077,2695.1415611835205
79,2685.629467784405,2685.629467784405,2695.1415611835205,2709.691704199881
80,2716.327385403271,2716.327385403271,2722.9424781139437,2733.859337098797
81,2756.3295020140977,2756.3295020140977,2758.4302159961103,2774.7537820080893
82,2813.333367902143,2813.333367902143,2825.916244702509,2843.0994983799214
83,2825.1231830836596,2825.916244702509,2843.0994983799214,2857.7404585196055
84,2840.3524211210215,2840.3524211210215,2857.7404585196055,2877.4858465701263
85,2889.15286790862,2889.15286790862,2895.697013894981,2908.1550748128834
86,2943.0041770191733,2943.0041770191733,2955.87674460588,2970.3976250080736
87,2995.4467219658723,2995.4467219658723,3007.198501359966,3022.0335820110026
88,3016.039849612577,3016.039849612577,3024.5806697363405,3043.569196514178
89,3063.5328633897257,3063.5328633897257,3064.7298087043046,3083.8148163895826
90,3105.398524152078,3105.398524152078,3114.7529748516567,3128.2770832781302
91,3119.560000558507,3119.560000558507,3128.2770832781302,3147.4911812407263
92,3166.0284161251147,3166.0284161251147,3178.2849936538614,3194.485331241321
93,3183.4617134778237,3183.4617134778237,3194.485331241321,3211.4542983018755
94,3237.4109747613325,3237.4109747613325,3258.780236603526,3274.549918043862
95,3264.5925718958506,3264.5925718958506,3283.1449473107414,3303.9880531512867
96,3286.7252647613864,3286.7252647613864,3303.9880531512867,3318.7939343985095
97,3298.133016374584,3301.9926303475804,3325.033228637319,3344.5210319836647
98,3337.5257090589,3337.5257090589,3344.5210319836647,3362.4041117204556
99,3348.7987573201453,3348.7987573201453,3362.4041117204556,3375.27624711066
100,3377.4388927421905,3377.4388927421905,3382.7131852470984,3397.379533046457
101,3409.932544150577,3409.932544150577,3413.368696086897,3425.8844034133676
102,3431.9363529808866,3431.9363529808866,3444.6612424758123,3460.6779517674813
103,3484.1327778452533,3484.1327778452533,3488.081343184301,3502.1972200153255
104,3525.7716785449866,3525.7716785449866,3539.646153782743,3552.556967779821
105,3539.1881141268564,3539.646153782743,3554.4781324732876,3569.0335022887048
106,3597.295341851063,3597.295341851063,3607.329053235736,3624.048979451561
107,3644.4362141349216,3644.4362141349216,3655.4033889373295,3669.498922129698
108,3687.104188818471,3687.104188818471,3692.1125742135346,3709.697551080355
109,3701.053845909263,3701.053845909263,3709.697551080355,3727.9524867475425
110,3752.6744872038666,3752.6744872038666,3753.7717588084843,3769.481837686509
111,3808.507258803267,3808.507258803267,3818.670371273848,3837.277372832509
112,3858.2316688873484,3858.2316688873484,3868.5141448225513,3882.2108417764966
113,3899.971488855827,3899.971488855827,3922.2662141520605,3942.074150528784
114,3937.4767196895546,3937.4767196895546,3942.074150528784,3961.391354099551
115,3978.452669929268,3978.452669929268,3989.803218344413,4007.460169473841
116,4022.81185433566,4022.81185433566,4034.927025821276,4043.299617089306
117,4077.619376549636,4077.619376549636,4095.810751363656,4114.257702844136
118,4104.2025828733495,4104.2025828733495,4114.257702844136,4128.029519928083
119,4115.222535513699,4115.222535513699,4128.029519928083,4150.6192693963
120,4151.622784084693,4151.622784084693,4162.242015609587,4174.506073782454
121,4172.655723583251,4172.655723583251,4174.506073782454,4189.819004270436
122,4191.003500903225,4191.003500903225,4202.939958440066,4216.595721822854
123,4202.601288248958,4202.939958440066,4216.595721822854,4232.891028603021
124,4260.648888605275,4260.648888605275,4286.471808897996,4295.39172767481
125,4315.719586120856,4315.719586120856,4324.076202844079,4337.573033194487
126,4368.350867747018,4368.350867747018,4368.741326332665,4379.767184706672
127,4379.916496159766,4379.916496159766,4401.383246698744,4415.507943423002
128,4413.312566785977,4413.312566785977,4416.159993656205,4434.622487725309
129,4445.8854732138225,4445.8854732138225,4474.781198091851,4489.786659928149
130,4504.198008742568,4504.198008742568,4507.813673181424,4521.977747559231
131,4547.694684364413,4547.694684364413,4550.863499248812,4568.462518540398
132,4581.599011802317,4581.599011802317,4582.670755406993,4597.351701458544
133,4609.6102994452385,4609.6102994452385,4616.611064879562,4630.231645166027
134,4662.451863470082,4662.451863470082,4674.309437521139,4693.680939981627
135,4718.471573138839,4718.471573138839,4733.852833690253,4752.799900871491
136,4764.2003344879695,4764.2003344879695,4764.4632926938975,4779.970962112689
137,4800.513781118347,4800.513781118347,4817.920442972929,4835.701997377302
138,4835.021890438556,4835.021890438556,4839.268703750751,4851.8463175409015
139,4864.941238415656,4864.941238415656,4883.809310413819,4899.925139010993
140,4882.231334935538,4883.809310413819,4899.925139010993,4912.893843625753
141,4932.533763005989,4932.533763005989,4947.991462168406,4958.991948356111
142,4951.763469445269,4951.763469445269,4958.991948356111,4970.927364212397
143,5001.992992563037,5001.992992563037,5003.185506053599,5020.335712613589
144,5057.312715815401,5057.312715815401,5070.776190927672,5088.705135034718
145,5092.104117984146,5092.104117984146,5095.4159921427035,5110.5599111634165
146,5105.864538103671,5105.864538103671,5118.662640967809,5137.039845598474
147,5127.706194221746,5127.706194221746,5151.797007521292,5169.8242763357475
148,5172.128976179855,5172.128976179855,5175.858031586748,5194.556979444982
149,5200.8760987236155,5200.8760987236155,5228.779135926153,5240.627035752765
150,5222.750005480222,5228.779135926153,5240.627035752765,5257.763132711198
151,5243.5166113673895,5243.5166113673895,5257.763132711198,5274.3314343412285
152,5298.61385442478,5298.61385442478,5302.224103642305,5316.5258270355625
153,5326.751616673184,5326.751616673184,5334.096232449346,5347.469828838674
154,5341.7468316116965,5341.7468316116965,5347.847090497883,5363.818921868906
155,5360.765061255222,5360.765061255222,5369.198833241096,5386.308950307358
156,5380.76861133954,5380.76861133954,5392.463479365536,5409.201286721601
157,5431.538582212196,5431.538582212196,5446.062866588694,5459.614933841282
158,5468.411527541498,5468.411527541498,5496.988551159865,5509.341934748144
159,5519.7030236175515,5519.7030236175515,5521.396333695135,5536.086696515745
160,5546.781755450894,5546.781755450894,5547.079578496056,5558.795618632437
161,5583.157755483147,5583.157755483147,5587.499978426322,5604.080711582931
162,5603.836509876878,5603.836509876878,5606.623664496958,5625.03207770392
163,5633.000791443057,5633.000791443057,5638.961191455481,5653.180675644917
164,5668.31704818793,5668.31704818793,5672.951981692629,5687.0998712190285
165,5699.793296136941,5699.793296136941,5726.879044590788,5739.574209668301
166,5722.525503165193,5726.879044590788,5739.574209668301,5751.220480292903
167,5737.627255069072,5737.627255069072,5772.815879256069,5783.896328456057
168,5793.596188301117,5793.596188301117,5844.150908987383,5859.384824553895
169,5844.144303017851,5844.150908987383,5859.384824553895,5871.928795911544
170,5859.752963339899,5859.752963339899,5871.928795911544,5889.246266829651
171,5871.699986580946,5871.699986580946,5889.246266829651,5906.586611841504
172,5910.46801537055,5910.46801537055,5922.920143179164,5936.246176128523
173,5948.982607613106,5948.982607613106,5964.881383449689,5979.968900260513
174,5981.895063566869,5981.895063566869,5998.331463011794,6011.507459107538
175,5998.66643048692,5998.66643048692,6011.507459107538,6030.17005455159
176,6027.593934087832,6027.593934087832,6030.17005455159,6046.794365096044
177,6068.971293840731,6068.971293840731,6071.262099461441,6089.099585141674
178,6084.561562745967,6084.561562745967,6089.106032142114,6110.407059947321
179,6138.922098389266,6138.922098389266,6158.270244303184,6173.895580266909
180,6193.521019806924,6193.521019806924,6200.01572360317,6211.699153742779
181,6246.139269052417,6246.139269052417,6247.305675249235,6262.7931556393105
182,6302.235153967408,6302.235153967408,6335.562340014657,6350.370607232077
183,6342.250004528488,6342.250004528488,6350.370607232077,6368.400836864433
184,6383.262180735472,6383.262180735472,6386.466524872315,6410.306878487422
185,6422.231175259572,6422.231175259572,6422.911008097964,6438.073100851374
186,6475.178349427857,6475.178349427857,6477.4378046166585,6496.093880047364
187,6523.547387887982,6523.547387887982,6543.097849976766,6562.915597619058
188,6548.278766130955,6548.278766130955,6562.915597619058,6584.649754453927
189,6590.57041824787,6590.57041824787,6606.1492403463335,6622.186826231772
190,6604.546569583499,6606.1492403463335,6622.186826231772,6638.258114181434
191,6633.079034203626,6633.079034203626,6676.125717097924,6694.179091789197
192,6689.061281126674,6689.061281126674,6694.179091789197,6716.645110331099
193,6715.594056056154,6715.594056056154,6723.629913606211,6739.902687993547
194,6757.578869461932,6757.578869461932,6761.634844045955,6777.240318712918
195,6791.709343222408,6791.709343222408,6797.3844792549335,6818.7735308874435
196,6836.3586845403115,6836.3586845403115,6846.10144314503,6857.463030806665
197,6894.658394050938,6894.658394050938,6908.873223567434,6922.0604798772065
198,6933.194023405591,6933.194023405591,6940.8194044613465,6960.648216986809
199,6991.114933926562,6991.114933926562,7017.337536690724,7037.991982748021
200,7036.526360259049,7036.526360259049,7040.839759187246,7056.0676668203205
201,7067.136694659176,7067.136694659176,7067.229298711584,7088.551010692786
202,7121.758859140121,7121.758859140121,7139.354178778119,7150.783705929749
203,7153.7410341251325,7153.7410341251325,7163.20001050426,7179.813579198305
204,7206.824482882185,7206.824482882185,7207.3089592639035,7224.947917074524
205,7238.141848119789,7238.141848119789,7240.476423491922,7257.952976922698
206,7252.157535506953,7252.157535506953,7269.905445323976,7285.897566424406
207,7298.762483852219,7298.762483852219,7300.667458389795,7311.982177689634
208,7355.238050289153,7355.238050289153,7361.66527958415,7372.470281389511
209,7377.356395831302,7377.356395831302,7385.415019794134,7401.971332782179
210,7434.581019720629,7434.581019720629,7434.821932801463,7451.4941945164355
211,7459.84853795536,7459.84853795536,7467.343468032257,7482.3464429808355
212,7509.3986913579465,7509.3986913579465,7539.129054604823,7553.399128227299
213,7535.795261121411,7539.129054604823,7553.399128227299,7566.956189404678
214,7547.746673852728,7549.039465085033,7566.956189404678,7584.015326353463
215,7580.763596397133,7580.763596397133,7584.015326353463,7602.577636483118
216,7618.1032290299545,7618.1032290299545,7653.850937268676,7668.685941166828
217,7655.363630987803,7655.363630987803,7670.171382415954,7686.977714258085
218,7696.574603393337,7696.574603393337,7704.3965678098175,7723.524595467258
219,7717.753458445783,7717.753458445783,7732.203850460354,7748.753217770048
220,7769.392041974857,7769.392041974857,7791.069498478685,7809.412704412226
221,7801.787702578948,7801.787702578948,7809.412704412226,7821.1324065651825
222,7840.360641174625,7840.360641174625,7859.598261841477,7878.284736032948
223,7853.620370155708,7859.598261841477,7888.853308486553,7903.130142782185
224,7867.212775956493,7888.853308486553,7908.768604197202,7923.689166087628
225,7909.589692009181,7909.589692009181,7923.689166087628,7937.217509083073
226,7961.9534568385,7961.9534568385,7973.750354758791,7990.563581985568
227,7995.818615700363,7995.818615700363,8039.556534627529,8052.71107909093
228,8006.8365011828255,8039.556534627529,8052.71107909093,8067.8543387447235
229,8020.163447429959,8043.406847240563,8067.8543387447235,8083.1138636564
230,8059.811534192863,8059.811534192863,8083.1138636564,8100.388383071088
231,8109.54664752973,8109.54664752973,8119.159760353653,8137.728356711906
232,8140.674386025469,8140.674386025469,8147.451384462619,8162.6562310929785
233,8188.092821165876,8188.092821165876,8218.13090525767,8231.147031927718
234,8210.277058288559,8218.13090525767,8231.147031927718,8251.362400720785
235,8259.318228202379,8259.318228202379,8275.126616256839,8292.62910431205
236,8314.071722298691,8314.071722298691,8314.992493916432,8329.80942676291
237,8348.842171707107,8348.842171707107,8354.390630695427,8376.132072912424
238,8374.28963764662,8374.28963764662,8376.132072912424,8390.011320888103
239,8409.573196735631,8409.573196735631,8417.475810993377,8434.83265510828
240,8432.955919300059,8432.955919300059,8442.586717357613,8457.20774486314
241,8466.138207026526,8466.138207026526,8467.221460217934,8478.542154231987
242,8516.754734274162,8516.754734274162,8529.951398642672,8542.437250211837
243,8568.651558283947,8568.651558283947,8600.873068210003,8620.405230985269
244,8609.045856009669,8609.045856009669,8629.639944529341,8642.995359110479
245,8664.225345562387,8664.225345562387,8671.613968217638,8689.407392504394
246,8722.467958742112,8722.467958742112,8722.737740335082,8736.535530625757
247,8778.523622196948,8778.523622196948,8801.160983086349,8821.800228254477
248,8830.96096898615,8830.96096898615,8843.724402374937,8859.057113493698
249,8879.30777342106,8879.30777342106,8891.944325642711,8911.177032749029
250,8907.689445595617,8907.689445595617,8924.77683288461,8939.11751879004
251,8938.720244860811,8938.720244860811,8948.854472739144,8961.425314223578
252,8957.556931708346,8957.556931708346,8970.297692284956,8986.0568380488
253,9007.76992661461,9007.76992661461,9014.471527152835,9031.889683666992
254,9051.737417491624,9051.737417491624,9057.278634761584,9080.225235046208
255,9072.758544404904,9072.758544404904,9081.518524522391,9105.282106540508
256,9105.560429493265,9105.560429493265,9108.685044726624,9132.928575291688
