# file created by code in harbour_fns_1896438.jl
# file created on 2026-03-09 at 15:39:36
# parameter: seed = 1896468
# parameter: T = 30000.0
# parameter: lower_interarrival = 11.0
# parameter: upper_interarrival = 59.0
# parameter: mean_process_times = [11.0, 16.0]
# parameter: max_queue = [9223372036854775807, 4]
# parameter: time_units = hours
id,arrival_time,start_service_times,start_service_times,completion_time
1,0.0,0.0,16.614684555064297,34.5362728189565
2,49.57038791406802,49.57038791406802,55.866627622318084,71.64290393263884
3,88.84154005169519,88.84154005169519,92.77518724003016,104.63119356661758
4,109.97036796260744,109.97036796260744,110.60962358840612,128.17946051883962
5,141.6131552515976,141.6131552515976,142.24571005890644,156.55205793799266
6,190.25506340062037,190.25506340062037,197.9311637999386,215.32904663692332
7,218.04701712765393,218.04701712765393,220.3952496526713,240.0152313020353
8,244.30514652059986,244.30514652059986,247.63152758398562,260.9290475357785
9,273.7262291716485,273.7262291716485,281.5511027097553,296.9510821671275
10,330.07039349029463,330.07039349029463,336.22059658041076,349.60409907054225
11,357.48466963243754,357.48466963243754,365.97589155800875,385.8305539956293
12,378.5214356236087,378.5214356236087,385.8305539956293,393.71465969222135
13,390.8091666576449,390.8091666576449,406.7529924688691,419.23918991036635
14,406.19888235719196,406.7529924688691,419.23918991036635,433.1942594626486
15,451.8003866148371,451.8003866148371,455.9006696430225,470.5870983482919
16,497.25868785093445,497.25868785093445,524.107414659896,541.4621217791625
17,532.8864102096929,532.8864102096929,612.8700133930467,629.477276424002
18,582.3483270975656,612.8700133930467,629.477276424002,647.9847618367222
19,618.2652981468414,618.2652981468414,647.9847618367222,661.8891908988021
20,662.1265126502348,662.1265126502348,668.9019273719482,689.1656927444379
21,712.1942276762383,712.1942276762383,718.7991392887691,733.6986586015621
22,768.9907132301747,768.9907132301747,769.6004535800721,784.7829677425674
23,800.3209631731969,800.3209631731969,853.0407192036464,870.5805023405308
24,834.7628272711839,853.0407192036464,870.5805023405308,889.6813292871869
25,858.3105433713199,858.3105433713199,889.6813292871869,906.025475734684
26,901.6061139912458,901.6061139912458,906.025475734684,921.586366841159
27,932.7869702594594,932.7869702594594,942.9678811442492,956.4100061943459
28,983.9363438364555,983.9363438364555,994.3425549271929,1013.3952563133512
29,1010.1140596490657,1010.1140596490657,1016.5446237342846,1032.464780987177
30,1065.9276958063292,1065.9276958063292,1095.1712485534676,1110.2324822030505
31,1122.047538458851,1122.047538458851,1128.7354435481168,1140.8304588686447
32,1159.7310094181823,1159.7310094181823,1171.1502952087371,1187.044355035521
33,1214.7561698938023,1214.7561698938023,1235.3608007057014,1254.6886822905913
34,1243.8687796829888,1243.8687796829888,1254.6886822905913,1274.392271111909
35,1279.524065518871,1279.524065518871,1291.3631406922173,1309.9392165381803
36,1329.1509609078166,1329.1509609078166,1342.2932103810301,1361.6151080397287
37,1347.5468274802006,1347.5468274802006,1361.6151080397287,1378.717399551266
38,1369.3595601371724,1369.3595601371724,1389.8569744753413,1401.1925625843714
39,1422.3369834158896,1422.3369834158896,1425.3785322074216,1438.1577748952607
40,1452.83073819324,1452.83073819324,1459.23189930949,1475.3463909826728
41,1492.4183122816876,1492.4183122816876,1501.6444700044701,1518.1964698716683
42,1533.9641739645722,1533.9641739645722,1537.841805515766,1551.2763444432114
43,1591.7929599858853,1591.7929599858853,1596.8154657233845,1610.6381604167884
44,1642.7424036904702,1642.7424036904702,1650.0875441974042,1662.650317571316
45,1694.1507926247991,1694.1507926247991,1699.0746207743796,1717.0759844326533
46,1709.6928404446267,1709.6928404446267,1718.581759268162,1741.8961867108026
47,1761.8813958336275,1761.8813958336275,1762.9327131561552,1777.8693983775224
48,1774.9209263781308,1774.9209263781308,1780.5061334182483,1799.0650430103171
49,1799.0518167994633,1799.0518167994633,1802.3207262436829,1815.5947010113034
50,1810.786470595466,1810.786470595466,1819.033879779018,1832.4271967046961
51,1854.7534126995363,1854.7534126995363,1881.3400663718376,1893.4586013864296
52,1910.860383180643,1910.860383180643,1921.5676869467509,1936.996380863659
53,1952.9264683583035,1952.9264683583035,1998.118322384349,2013.3849638259974
54,1976.8353185948156,1998.118322384349,2023.657439024443,2044.2448914455376
55,2007.667762111239,2023.657439024443,2044.2448914455376,2062.225120910525
56,2054.729245628609,2054.729245628609,2069.0527692736923,2078.60314214052
57,2078.5921864681923,2078.5921864681923,2083.3444655304734,2099.271901251452
58,2127.8407270835783,2127.8407270835783,2129.391838360724,2144.421611650614
59,2184.530424104196,2184.530424104196,2227.303078557725,2241.5205969024887
60,2196.783243245211,2227.303078557725,2242.922049504612,2254.5023388798368
61,2236.1308011995,2242.922049504612,2254.5023388798368,2265.7249747868127
62,2274.4162267583765,2274.4162267583765,2275.2047085049007,2291.850479181907
63,2321.807258766009,2321.807258766009,2341.84035646185,2355.7174673186596
64,2334.813824495998,2341.84035646185,2361.168165081166,2376.508562437193
65,2386.224563700921,2386.224563700921,2406.2837424792447,2421.8537584482788
66,2404.6447862609302,2406.2837424792447,2450.001781735718,2466.5718668453765
67,2445.494562284009,2450.001781735718,2466.5718668453765,2481.310263827612
68,2502.8060798047063,2502.8060798047063,2504.742745170376,2520.6276764272343
69,2547.2880241315174,2547.2880241315174,2557.2273081106055,2571.169741730379
70,2581.615693465689,2581.615693465689,2586.1391651254994,2600.319461545313
71,2636.8926387083065,2636.8926387083065,2639.525350654933,2655.041100931124
72,2692.60272541254,2692.60272541254,2700.289506937198,2719.069507526311
73,2713.917999371011,2713.917999371011,2725.005662089551,2737.3876507879845
74,2763.18577826558,2763.18577826558,2784.776060845118,2800.3144247253476
75,2800.5858551024867,2800.5858551024867,2809.2803465551942,2822.7032752209348
76,2824.0737167189163,2824.0737167189163,2838.636267181229,2852.878959998077
77,2861.831716883221,2861.831716883221,2862.5267723053216,2879.437383788508
78,2877.3612221153903,2877.3612221153903,2886.352715892475,2900.242842437815
79,2904.969564276475,2904.969564276475,2912.5394977768633,2926.5357089036147
80,2959.51944827415,2959.51944827415,2971.204976301486,2990.064903173299
81,3014.696950728485,3014.696950728485,3020.625030488632,3032.770325026626
82,3064.0242284931664,3064.0242284931664,3073.405328815462,3090.971394292996
83,3108.5762968747376,3108.5762968747376,3120.1549720750763,3130.0898692835135
84,3136.4052410239424,3136.4052410239424,3176.5432982433226,3199.927687574177
85,3185.013435845816,3185.013435845816,3226.653001975518,3241.076496953315
86,3202.97002217144,3226.653001975518,3241.076496953315,3254.2797580029146
87,3219.1169434779467,3226.917031404276,3254.2797580029146,3270.0747339715563
88,3248.372032035747,3248.372032035747,3270.0747339715563,3287.125857282687
89,3263.7478442592706,3263.7478442592706,3297.459525542767,3313.950704758322
90,3302.869116463126,3302.869116463126,3313.950704758322,3333.425550008156
91,3330.6190553784054,3330.6190553784054,3335.957278239989,3354.000793989739
92,3348.8369548347564,3348.8369548347564,3354.000793989739,3371.608431122527
93,3365.8968034551453,3365.8968034551453,3371.608431122527,3386.2883744682526
94,3418.576018886071,3418.576018886071,3418.721497948753,3433.8694358138473
95,3439.639681381844,3439.639681381844,3455.8954306240807,3471.6833303679978
96,3474.0955477456773,3474.0955477456773,3497.14479066193,3513.7458891188508
97,3531.597124727806,3531.597124727806,3543.712059655917,3561.408198450676
98,3589.344692052029,3589.344692052029,3599.274455796871,3617.3748663634224
99,3625.620151901198,3625.620151901198,3641.8820894278824,3666.3726993267865
100,3677.4397465748953,3677.4397465748953,3679.750170348034,3693.7737658976366
101,3722.2573785034524,3722.2573785034524,3729.4859246647557,3745.710473902514
102,3740.655933361013,3740.655933361013,3745.710473902514,3758.3706185834035
103,3794.1897855728344,3794.1897855728344,3800.0780084895264,3822.22157626778
104,3841.652497494921,3841.652497494921,3844.2746966014,3856.836100363807
105,3854.948014499597,3854.948014499597,3873.049999200373,3888.8635644356586
106,3905.58425402441,3905.58425402441,3921.6599698730242,3935.2643458394487
107,3962.5159596502413,3962.5159596502413,3974.8494574792203,3989.6651504971464
108,3996.091923423193,3996.091923423193,4000.978900709044,4016.6698894089
109,4052.5372856296653,4052.5372856296653,4075.95798474179,4095.683222736255
110,4105.488097502416,4105.488097502416,4119.694586878473,4140.704672615357
111,4124.362064629981,4124.362064629981,4140.704672615357,4155.4176502018845
112,4142.360733125706,4142.360733125706,4159.981631748571,4173.179551675945
113,4154.717144276499,4159.981631748571,4173.179551675945,4191.273008151421
114,4176.401641963867,4176.401641963867,4191.273008151421,4207.389510599605
115,4208.937777107484,4208.937777107484,4242.5983525440915,4259.323212699458
116,4225.447624252289,4242.5983525440915,4259.323212699458,4275.206648920097
117,4261.190283034337,4261.190283034337,4275.206648920097,4288.807014624915
118,4309.185730228885,4309.185730228885,4330.495036783122,4347.096334449472
119,4344.377261072304,4344.377261072304,4355.890528757207,4370.516352955451
120,4388.799432186968,4388.799432186968,4392.609690940598,4409.223394199647
121,4439.259469541327,4439.259469541327,4441.560768411317,4457.897544272804
122,4476.023085166897,4476.023085166897,4477.343447393421,4495.83848537094
123,4503.408014637336,4503.408014637336,4510.706686271147,4531.029335237872
124,4537.098600426798,4537.098600426798,4543.901414038252,4564.11113838266
125,4590.056554340023,4590.056554340023,4593.058411588556,4609.671261336613
126,4603.367046975565,4603.367046975565,4611.765277739488,4630.833073074776
127,4661.310120247707,4661.310120247707,4672.908412261695,4687.618712738585
128,4678.816644279195,4678.816644279195,4687.618712738585,4705.95593401346
129,4724.2840692578175,4724.2840692578175,4743.800757385101,4758.061105557714
130,4737.178044360146,4743.800757385101,4758.061105557714,4771.123744523158
131,4780.231910230539,4780.231910230539,4793.678798262059,4814.564928727977
132,4822.751848433069,4822.751848433069,4836.05487794096,4850.080077689786
133,4845.690421874915,4845.690421874915,4850.080077689786,4866.377711302609
134,4890.029502039277,4890.029502039277,4897.6792164499,4914.324606867066
135,4917.210202383125,4917.210202383125,4932.5275832688485,4950.266331170241
136,4936.836440552347,4936.836440552347,4990.84877503761,5011.943998783668
137,4961.770723470722,4990.84877503761,5011.943998783668,5028.142098353817
138,5019.397886977558,5019.397886977558,5029.896901979932,5042.664970857432
139,5060.091142704415,5060.091142704415,5062.225461106986,5076.066599842889
140,5094.086054541966,5094.086054541966,5095.319747460759,5112.749145778019
141,5121.121115139417,5121.121115139417,5134.079109735782,5150.780210412852
142,5147.862273883626,5147.862273883626,5158.933255701878,5175.262975386968
143,5169.162915677675,5169.162915677675,5175.262975386968,5192.275654126002
144,5205.82580194284,5205.82580194284,5228.690457994065,5243.83941571156
145,5224.358681736624,5228.690457994065,5243.83941571156,5263.600084823612
146,5237.603341751634,5237.603341751634,5263.600084823612,5277.114098638747
147,5253.459393136077,5253.459393136077,5277.114098638747,5298.727074330002
148,5304.504115367856,5304.504115367856,5312.516612724314,5326.506542851319
149,5323.728221750179,5323.728221750179,5333.46136022492,5350.499675333823
150,5346.143378285718,5346.143378285718,5350.499675333823,5364.295888616231
151,5397.962201751172,5397.962201751172,5409.201024547106,5425.506703745079
152,5418.23865631687,5418.23865631687,5427.283307407485,5441.346516382433
153,5435.40267753683,5435.40267753683,5441.763195514548,5454.556621867761
154,5476.123337538123,5476.123337538123,5495.020334158377,5507.2615633662745
155,5498.101396873504,5498.101396873504,5507.662323785312,5526.155530226928
156,5523.371851318253,5523.371851318253,5545.547879466448,5564.367871992899
157,5559.152463953829,5559.152463953829,5577.119791960055,5588.234338655496
158,5610.091738269457,5610.091738269457,5631.768165026866,5647.243645262867
159,5638.3296015977385,5638.3296015977385,5667.66397456988,5675.380735139311
160,5676.380717127182,5676.380717127182,5693.472187967272,5709.222495732182
161,5707.505108031893,5707.505108031893,5714.910611226085,5727.328981688677
162,5720.365369427197,5720.365369427197,5727.354264508675,5743.647194207025
163,5768.761844711477,5768.761844711477,5795.493631773131,5813.0976664353175
164,5808.368027701039,5808.368027701039,5830.3012467175395,5843.575390387654
165,5855.137689788808,5855.137689788808,5887.07293071209,5901.759931281002
166,5869.207627747641,5887.07293071209,5901.759931281002,5916.9807515570365
167,5900.5757806127,5900.5757806127,5916.9807515570365,5938.240555003526
168,5921.121362424646,5921.121362424646,5938.240555003526,5958.286351409745
169,5951.007373588847,5951.007373588847,5958.286351409745,5973.69830623371
170,5971.165806651563,5971.165806651563,5987.982984639059,6005.1649574214025
171,6005.406702880528,6005.406702880528,6008.169289075691,6024.144440111732
172,6036.561870493979,6036.561870493979,6037.396037420606,6051.4552708266765
173,6052.653959164564,6052.653959164564,6059.188676036291,6074.03174611489
174,6082.144539018806,6082.144539018806,6085.201447553123,6103.742803885013
175,6127.235847717872,6127.235847717872,6128.720896645794,6146.718623816321
176,6144.79261236925,6144.79261236925,6150.508018102337,6167.353161236417
177,6170.789588565443,6170.789588565443,6176.02671638235,6190.5837329521755
178,6216.0731228232025,6216.0731228232025,6216.60992707133,6235.080494137858
179,6239.105043803804,6239.105043803804,6243.9857747821125,6261.041709981599
180,6283.766984841127,6283.766984841127,6285.520117001803,6299.212386496956
181,6296.729001941605,6296.729001941605,6299.2207426813975,6314.726855430491
182,6334.97632664445,6334.97632664445,6342.083317865084,6352.995186923051
183,6391.817763520575,6391.817763520575,6397.170200388057,6415.944570753826
184,6426.778660295725,6426.778660295725,6429.690107673497,6444.082449024974
185,6468.517079581026,6468.517079581026,6470.190047538261,6479.068828913286
186,6481.591200644971,6481.591200644971,6491.190071855427,6508.408777440316
187,6530.49498512749,6530.49498512749,6532.009503533194,6551.918104582012
188,6545.092311433988,6545.092311433988,6562.495329551578,6581.493026676927
189,6593.971994141814,6593.971994141814,6597.414416278792,6612.778847354723
190,6636.685863699408,6636.685863699408,6642.805841423098,6651.765096582666
191,6649.000793773617,6649.000793773617,6657.950421271084,6672.147965077403
192,6699.808674634749,6699.808674634749,6709.483830782279,6728.454921818851
193,6749.496569434716,6749.496569434716,6755.319769753628,6770.031117269215
194,6807.693026116747,6807.693026116747,6812.215000752029,6830.4623429187195
195,6842.5123085338955,6842.5123085338955,6887.727609945964,6902.277097424396
196,6868.415250205227,6887.727609945964,6902.277097424396,6915.954935291237
197,6885.817146381318,6900.383715380256,6915.954935291237,6930.935104705536
198,6931.051363210734,6931.051363210734,6932.179357297062,6952.807804275502
199,6943.334184516118,6943.334184516118,6952.807804275502,6970.85780920222
200,6991.431090402997,6991.431090402997,7019.898456402247,7037.506379482713
201,7027.150015945157,7027.150015945157,7037.746347616773,7056.153303705666
202,7085.400851115514,7085.400851115514,7105.407622173741,7127.814708793013
203,7118.397682541629,7118.397682541629,7138.331327574232,7155.328180831233
204,7172.860662913267,7172.860662913267,7173.263711282952,7188.396495612545
205,7219.507459032953,7219.507459032953,7236.293942029179,7255.243777526384
206,7274.79671354436,7274.79671354436,7307.943469021261,7323.642460577694
207,7287.447940084441,7307.943469021261,7323.642460577694,7342.477912185141
208,7306.172607545819,7308.103968228398,7342.477912185141,7351.855625787065
209,7347.948017950255,7347.948017950255,7355.396730672099,7372.000235662784
210,7364.350317349871,7364.350317349871,7376.021230625852,7388.933941150704
211,7400.950579376407,7400.950579376407,7402.60759399522,7418.751576391734
212,7412.838355691455,7412.838355691455,7454.232137683296,7469.903682099395
213,7464.250895860419,7464.250895860419,7469.903682099395,7484.739094831151
214,7484.485532537221,7484.485532537221,7500.90765133371,7519.863917909291
215,7502.626024423478,7502.626024423478,7519.863917909291,7537.484614417386
216,7531.760105355756,7531.760105355756,7537.484614417386,7550.653771969422
217,7574.218715364284,7574.218715364284,7593.505844884031,7607.913273053937
218,7626.99925255459,7626.99925255459,7629.884465958889,7644.691298074741
219,7669.699862651873,7669.699862651873,7671.985484009144,7689.292145197134
220,7717.174155615318,7717.174155615318,7717.328454971166,7733.1054579291
221,7753.989658711046,7753.989658711046,7758.762855735029,7778.859915641077
222,7775.136493149414,7775.136493149414,7788.81564191918,7803.0187631485
223,7828.118260336194,7828.118260336194,7832.980118112295,7847.356234083555
224,7884.444432788018,7884.444432788018,7891.225277650328,7906.837285016391
225,7915.031624540748,7915.031624540748,7915.464865963401,7932.726308537203
226,7958.716738034895,7958.716738034895,7959.146926386308,7971.928176612518
227,7985.47739581522,7985.47739581522,7996.857142194831,8012.021548125459
228,8029.87539594742,8029.87539594742,8031.816398841092,8048.435355875572
229,8067.304536434036,8067.304536434036,8067.715089014151,8080.7860737168385
230,8122.761238968531,8122.761238968531,8165.612120058287,8178.01788867278
231,8137.541828106043,8165.612120058287,8183.671641113987,8202.931893898405
232,8159.101961000949,8183.671641113987,8222.151985289676,8234.453750249691
233,8174.594869692821,8222.151985289676,8234.453750249691,8251.927153838282
234,8186.696116455608,8223.383952051956,8251.927153838282,8266.223737955193
235,8202.501837084747,8232.717305785356,8266.223737955193,8279.876189416102
236,8256.768720036622,8256.768720036622,8294.778971655724,8314.105670064831
237,8290.308511242301,8294.778971655724,8314.105670064831,8329.169402327772
238,8322.253117506809,8322.253117506809,8334.812968356333,8343.948781066365
239,8372.25175782881,8372.25175782881,8373.512205078507,8379.776735270074
240,8406.544554313901,8406.544554313901,8411.534625612161,8429.64695077318
241,8440.632519459723,8440.632519459723,8443.30337068869,8466.086133177178
242,8499.034376089869,8499.034376089869,8517.391757152536,8530.150649610523
243,8517.611974553323,8517.611974553323,8530.150649610523,8542.27943051553
244,8568.140828118849,8568.140828118849,8580.068167074434,8597.402681471573
245,8609.77666981864,8609.77666981864,8616.121373792626,8629.84765010615
246,8648.42041200468,8648.42041200468,8648.860778000277,8667.608344183262
247,8684.698296029097,8684.698296029097,8687.672686192733,8707.612805064206
248,8699.253105386013,8699.253105386013,8738.0718162171,8754.412230037218
249,8752.750631869636,8752.750631869636,8760.377337980517,8777.431091982427
250,8776.828680698301,8776.828680698301,8779.672618274075,8804.539010762035
251,8818.102247345289,8818.102247345289,8822.0896375369,8835.74277427242
252,8876.963871056227,8876.963871056227,8895.047679911859,8909.605815565852
253,8909.700402343515,8909.700402343515,8916.327017321,8932.439158594036
254,8930.62222118095,8930.62222118095,8932.439158594036,8951.25354176142
255,8948.001474727447,8948.001474727447,8980.911665776113,8995.347609448549
256,8969.841222578938,8980.911665776113,8995.347609448549,9009.167928825444
257,9020.478782671737,9020.478782671737,9032.908029495942,9047.297331423611
