# file created by code in harbour_fns_1896438.jl
# file created on 2026-03-09 at 15:39:45
# parameter: seed = 1896605
# parameter: T = 30000.0
# parameter: lower_interarrival = 11.0
# parameter: upper_interarrival = 59.0
# parameter: mean_process_times = [11.0, 16.0]
# parameter: max_queue = [9223372036854775807, 4]
# parameter: time_units = hours
id,arrival_time,start_service_times,start_service_times,completion_time
1,0.0,0.0,6.3293858968021866,20.504627323159436
2,23.06369937331147,23.06369937331147,25.616797242442626,35.25517631682726
3,68.03305590918877,68.03305590918877,83.43086963559671,100.81765706890349
4,104.32162923608014,104.32162923608014,127.20602306614393,144.3593501385054
5,143.2185966297536,143.2185966297536,156.99036988097478,177.30430618729184
6,190.52396000696308,190.52396000696308,198.5316588881498,217.10029297342066
7,227.67633311225714,227.67633311225714,260.8018664270325,278.76818735777067
8,241.9050691162419,260.8018664270325,278.76818735777067,290.67644094746834
9,297.2262207887249,297.2262207887249,332.7295890703182,351.6191072525675
10,308.6571393300284,332.7295890703182,351.6191072525675,366.9169820029229
11,325.63907198292657,338.0307993593635,366.9169820029229,379.93012942853557
12,354.7996469725491,354.7996469725491,379.93012942853557,391.2515929432449
13,393.0277823481979,393.0277823481979,393.3658414507746,409.6996731802573
14,425.28764663763764,425.28764663763764,445.23222912423995,465.38987613659964
15,461.05044684807035,461.05044684807035,467.43044376000347,480.9199205244704
16,508.01019605826764,508.01019605826764,525.6764936455521,542.2290114383903
17,543.3452259720755,543.3452259720755,543.6465079685756,559.4673545913814
18,556.6387832392181,556.6387832392181,559.4673545913814,573.6478079020308
19,609.1284218138397,609.1284218138397,614.0188707253288,629.6559602228084
20,650.4841793502537,650.4841793502537,657.5740842732052,673.9125285036012
21,689.5284411931216,689.5284411931216,692.4978256730373,708.7999663865903
22,727.1119327629876,727.1119327629876,757.9288203033165,775.0286528319606
23,749.7195032859415,757.9288203033165,775.0286528319606,789.777839739413
24,791.3266092080937,791.3266092080937,805.283459235447,822.8637159376283
25,805.0791769749591,805.283459235447,822.8637159376283,837.9853092868364
26,855.7968674419453,855.7968674419453,856.7378051077187,871.2112643569216
27,914.2327004088538,914.2327004088538,919.8051752721143,941.9055130213668
28,928.1680313925667,928.1680313925667,946.5226449102862,960.5593569977896
29,972.8676848735674,972.8676848735674,980.6076054956575,999.4735623346259
30,1006.7818312518831,1006.7818312518831,1011.8918365687789,1028.3643729610444
31,1031.067863545015,1031.067863545015,1040.3133961119777,1057.8339411702889
32,1075.503948447326,1075.503948447326,1078.8581704360824,1095.8266488518118
33,1110.5778149504833,1110.5778149504833,1111.4823538962826,1129.7293252109384
34,1136.4893599329205,1136.4893599329205,1136.984510592299,1153.3152724644106
35,1170.5492898607872,1170.5492898607872,1173.788646371064,1191.5399936415768
36,1214.5353322034885,1214.5353322034885,1221.5815273416247,1239.387899120044
37,1231.890066394143,1231.890066394143,1240.902645556738,1260.6958045799877
38,1256.767493953442,1256.767493953442,1260.7425788246996,1278.914806528075
39,1304.6607130426298,1304.6607130426298,1305.5431460679617,1323.004284941272
40,1339.2041189084812,1339.2041189084812,1341.983739109844,1357.5195121854047
41,1394.907242913111,1394.907242913111,1402.0658933129866,1415.7656590243478
42,1448.3305777841133,1448.3305777841133,1448.8240104088416,1462.225641575966
43,1495.7250748559068,1495.7250748559068,1498.1094802700075,1510.4296129746353
44,1508.621018356337,1508.621018356337,1562.6095889134003,1580.712948987819
45,1562.295548754314,1562.6095889134003,1580.712948987819,1599.722796239681
46,1612.8205872050835,1612.8205872050835,1619.9198373642962,1631.5845651776444
47,1636.930213268658,1636.930213268658,1637.5968134440063,1653.2239757919567
48,1673.6414300317279,1673.6414300317279,1679.487224985976,1695.5534161883397
49,1695.9357198383461,1695.9357198383461,1701.8904503889996,1714.1574809369404
50,1712.9415221983625,1712.9415221983625,1716.2536570522593,1734.242018139933
51,1766.0763535599667,1766.0763535599667,1789.8879841109374,1804.4712787067353
52,1822.3546356473103,1822.3546356473103,1822.8529984953846,1840.773478017934
53,1872.046766997135,1872.046766997135,1873.1453021782172,1885.7328909401215
54,1912.460315395866,1912.460315395866,1943.9542836893722,1962.5294020475526
55,1928.9818478427508,1943.9542836893722,1962.5294020475526,1974.6956501361394
56,1952.4861427739281,1955.0052258633937,1974.6956501361394,1986.1548021194435
57,1970.1423334658396,1970.1423334658396,1986.1548021194435,2004.42325062904
58,2017.3073600732312,2017.3073600732312,2022.8703742040163,2033.3233785499012
59,2044.9422476774957,2044.9422476774957,2062.8517050245314,2076.9140737332973
60,2076.772147303097,2076.772147303097,2079.847513921458,2091.00670506831
61,2113.877845690725,2113.877845690725,2125.8318627431922,2146.9784616321604
62,2142.6970036009957,2142.6970036009957,2146.9784616321604,2164.839741152129
63,2180.9289473135213,2180.9289473135213,2186.0515404222,2199.5018159292267
64,2237.13320509063,2237.13320509063,2240.8296451510814,2253.886131579492
65,2282.7824236019583,2282.7824236019583,2285.325087089756,2299.996564572436
66,2295.5290339989187,2295.5290339989187,2305.4044412619874,2322.3404449201603
67,2318.33178686821,2318.33178686821,2332.772462181068,2349.3728691500532
68,2355.281928891944,2355.281928891944,2357.085298811394,2376.722257619313
69,2408.9586751251118,2408.9586751251118,2413.5483519831328,2425.6183686087415
70,2435.749487001714,2435.749487001714,2440.660003653917,2454.282681146024
71,2483.5143179287365,2483.5143179287365,2484.5327947906867,2501.0211221105083
72,2503.5051901532797,2503.5051901532797,2514.9529776728155,2527.3119526170203
73,2548.7437898823796,2548.7437898823796,2549.8772280158487,2567.2126892781785
74,2587.73108750885,2587.73108750885,2629.7941053456325,2647.4643465777117
75,2610.5215777403737,2629.7941053456325,2654.9157783947594,2670.1082017476856
76,2632.453130775939,2654.9157783947594,2670.1082017476856,2685.0675995348365
77,2677.975532033714,2677.975532033714,2692.254200387817,2714.94960236163
78,2696.6686200153804,2696.6686200153804,2714.94960236163,2732.3843790525425
79,2720.014962852407,2720.014962852407,2742.1286249088416,2758.397064627514
80,2746.173713201074,2746.173713201074,2758.397064627514,2773.687119744031
81,2790.7000750091374,2790.7000750091374,2811.5331505230397,2824.6725580512234
82,2802.947621970425,2811.5331505230397,2824.6725580512234,2843.4059595362437
83,2838.64261379308,2838.64261379308,2851.7546424639795,2864.5484883933273
84,2859.6184640687493,2859.6184640687493,2864.5484883933273,2879.5928429383944
85,2877.8606984791095,2877.8606984791095,2879.5928429383944,2895.7108572590173
86,2907.538022163935,2907.538022163935,2923.7569441403057,2939.1570103091544
87,2921.5372584519287,2923.7569441403057,2939.1570103091544,2961.1609232399387
88,2957.742324787472,2957.742324787472,2989.7192952848304,3009.4252913064897
89,2994.232603828747,2994.232603828747,3009.4252913064897,3027.275058734361
90,3007.582855639413,3007.582855639413,3027.275058734361,3041.769798093063
91,3040.8072241853724,3040.8072241853724,3050.402196900699,3067.6916632005014
92,3069.4105324021075,3069.4105324021075,3083.0274473063405,3094.4669190264112
93,3123.9119436844844,3123.9119436844844,3133.10417789861,3148.44625725915
94,3174.4814925087076,3174.4814925087076,3175.199891703907,3190.6535742217893
95,3206.4782675612637,3206.4782675612637,3211.8651813492247,3224.7754327952307
96,3230.592343661187,3230.592343661187,3230.800168889158,3247.3247883477716
97,3282.4504597700607,3282.4504597700607,3284.6308289504964,3295.62770577
98,3294.3808444296974,3294.3808444296974,3295.62770577,3310.005587007584
99,3306.0001716066363,3306.0001716066363,3369.753701402621,3387.821405331545
100,3353.3101296992468,3369.753701402621,3387.821405331545,3399.676372696779
101,3403.9590947618044,3403.9590947618044,3432.0145874574823,3449.3473366486164
102,3460.2444857363816,3460.2444857363816,3465.2039437292656,3480.3811670698315
103,3505.2223494017376,3505.2223494017376,3513.2161984575446,3529.1340272098823
104,3550.680858370576,3550.680858370576,3558.566008611313,3574.5612209605597
105,3576.6612667862873,3576.6612667862873,3580.234270945959,3598.1128186194064
106,3589.3766453920507,3589.3766453920507,3598.1128186194064,3616.7159677159184
107,3639.740499526527,3639.740499526527,3646.9607474991276,3663.9056591521576
108,3672.9438376971957,3672.9438376971957,3676.623652391112,3695.5933211092947
109,3717.354735423886,3717.354735423886,3768.454256286047,3785.375273453297
110,3770.0460865232703,3770.0460865232703,3795.559143321513,3814.577758282553
111,3809.171594887152,3809.171594887152,3827.1225371437013,3837.08242650847
112,3867.3688306566937,3867.3688306566937,3883.1288780126943,3905.4954675854583
113,3884.134752442129,3884.134752442129,3905.4954675854583,3927.342543595221
114,3904.8901412943756,3904.8901412943756,3931.003370851833,3948.4445537405554
115,3949.935037458835,3949.935037458835,3957.497202920288,3978.889497264557
116,3993.364149294122,3993.364149294122,4007.4862321497585,4029.9538631290416
117,4041.06413439352,4041.06413439352,4047.900115197003,4066.3993168378174
118,4056.7722183744663,4056.7722183744663,4073.5381306693766,4096.33276719918
119,4087.223744582603,4087.223744582603,4102.845512099049,4120.448393713767
120,4132.544243232012,4132.544243232012,4142.72100530382,4152.188633460721
121,4160.948768409283,4160.948768409283,4164.361283483503,4180.586315251913
122,4207.463693048245,4207.463693048245,4223.394941054752,4236.8636888917945
123,4263.2295565596905,4263.2295565596905,4269.5192755156095,4287.578259798245
124,4283.530263904309,4283.530263904309,4297.884173583887,4311.9645977975615
125,4305.0315610681955,4305.0315610681955,4324.187067470024,4339.183540272477
126,4322.009731133031,4324.187067470024,4346.339795254661,4364.5302095258585
127,4355.479137720335,4355.479137720335,4364.5302095258585,4375.389587269903
128,4383.597180937465,4383.597180937465,4385.798511535243,4405.306776553318
129,4406.072987091535,4406.072987091535,4408.468435482572,4426.184918396927
130,4434.538700954143,4434.538700954143,4442.226037428348,4455.750745799198
131,4479.240640283228,4479.240640283228,4486.03588743915,4501.306500787815
132,4533.622785987769,4533.622785987769,4534.956779226584,4549.923458991377
133,4585.779908453052,4585.779908453052,4625.176141206726,4641.056207860369
134,4609.901715794217,4625.176141206726,4641.056207860369,4652.611483826133
135,4647.032212638525,4647.032212638525,4653.306210178739,4668.071688392069
136,4664.137327965707,4664.137327965707,4684.700119545591,4701.842637565075
137,4693.586436776027,4693.586436776027,4702.580089831018,4714.456824584885
138,4725.120658191816,4725.120658191816,4740.706550302184,4754.188551550869
139,4742.504514313644,4742.504514313644,4754.188551550869,4770.092843329599
140,4767.723536014487,4767.723536014487,4770.092843329599,4786.512556125478
141,4787.9357074795025,4787.9357074795025,4794.715770991381,4807.555355077945
142,4811.7367615067415,4811.7367615067415,4828.491233713437,4844.346515283539
143,4851.269286140198,4851.269286140198,4858.528848949369,4875.643501473233
144,4902.2589830981515,4902.2589830981515,4906.170996360245,4921.5383625889235
145,4936.526618757983,4936.526618757983,4938.19897721684,4953.645353077572
146,4974.345055369903,4974.345055369903,4984.722230526327,5001.107013771002
147,5029.528821705562,5029.528821705562,5038.126579591854,5057.274833234148
148,5072.284782076166,5072.284782076166,5077.995298602522,5093.954878161219
149,5128.331873427284,5128.331873427284,5135.311363228883,5151.682217201796
150,5149.384216733152,5149.384216733152,5156.814717919158,5179.037615349597
151,5195.8866782683335,5195.8866782683335,5198.209947106467,5213.391194954157
152,5209.504582296791,5209.504582296791,5248.922044837163,5264.231029633019
153,5231.911103590005,5248.922044837163,5264.231029633019,5282.560321856131
154,5274.8303414197435,5274.8303414197435,5282.560321856131,5296.249757442169
155,5329.26486424231,5329.26486424231,5344.568306324677,5365.281630331622
156,5341.131416858201,5344.568306324677,5365.281630331622,5375.834100470238
157,5378.64008136915,5378.64008136915,5386.759292430571,5408.697017885817
158,5427.202961936629,5427.202961936629,5431.775138756538,5448.921409146493
159,5440.242325363016,5440.242325363016,5448.921409146493,5468.485778144034
160,5498.9679865208645,5498.9679865208645,5506.615792051646,5519.242398044726
161,5549.009335683172,5549.009335683172,5558.822700893695,5577.910704871809
162,5588.807731983889,5588.807731983889,5603.468864699253,5619.423287530025
163,5601.051873547433,5603.468864699253,5619.423287530025,5639.105243694061
164,5645.448185942828,5645.448185942828,5647.214822888469,5665.967513318407
165,5703.807457926847,5703.807457926847,5708.613468874102,5723.631528145714
166,5749.351235986234,5749.351235986234,5751.192613652748,5766.963483230389
167,5762.829727688535,5762.829727688535,5769.102919502034,5782.876366759883
168,5808.899887835731,5808.899887835731,5809.061943780927,5820.187921647634
169,5854.718663232587,5854.718663232587,5856.098084441542,5872.785225919364
170,5868.214879207298,5868.214879207298,5886.3227908871895,5905.534335719911
171,5893.293506571724,5893.293506571724,5905.534335719911,5923.51342002437
172,5936.460029923589,5936.460029923589,5962.965286649564,5971.585805291219
173,5956.425574726952,5962.965286649564,5971.594784447685,5982.852482475338
174,6004.705212966545,6004.705212966545,6044.645474660037,6059.209384568972
175,6036.384312781119,6044.645474660037,6059.209384568972,6074.70217586007
176,6074.856315284255,6074.856315284255,6079.530825523785,6096.73667360577
177,6116.197054524484,6116.197054524484,6130.480744184037,6150.391669257216
178,6148.056132551893,6148.056132551893,6152.357180575116,6164.652445638186
179,6204.468420010919,6204.468420010919,6212.743158146682,6223.469126700906
180,6237.6874484259,6237.6874484259,6246.0048699272165,6260.321577790939
181,6272.98608620145,6272.98608620145,6279.50391604718,6295.876506246776
182,6287.920195103778,6287.920195103778,6304.325593421495,6316.403710933751
183,6328.114621352548,6328.114621352548,6340.986356857421,6358.767447209185
184,6339.532547621535,6340.986356857421,6358.767447209185,6372.459322629839
185,6363.411821857675,6363.411821857675,6372.459322629839,6390.391946957334
186,6389.610971780947,6389.610971780947,6392.908219033815,6410.235145402736
187,6444.941858788464,6444.941858788464,6452.137437623411,6464.731868010775
188,6487.809369728472,6487.809369728472,6494.4239394892875,6509.898081730897
189,6512.487165453906,6512.487165453906,6526.648930120115,6540.757145862831
190,6524.617047155755,6526.648930120115,6540.757145862831,6558.3071300648935
191,6571.606755847568,6571.606755847568,6571.845791147037,6586.588448588309
192,6584.769420917305,6584.769420917305,6594.036924410383,6607.961319787792
193,6627.3745229454935,6627.3745229454935,6628.010395566821,6634.785572136368
194,6658.256158926697,6658.256158926697,6658.985587597696,6676.317073546127
195,6679.895336988995,6679.895336988995,6687.175198802419,6702.679003954802
196,6707.3190863545415,6707.3190863545415,6723.30720956624,6741.751312476777
197,6734.690790940416,6734.690790940416,6741.751312476777,6763.839243440202
198,6764.080023949045,6764.080023949045,6770.778548740433,6785.352764914391
199,6779.000622644391,6779.000622644391,6802.411444704904,6817.770373446262
200,6809.621906900752,6809.621906900752,6817.770373446262,6837.730110931407
201,6853.970960651609,6853.970960651609,6866.212336639776,6885.762348413464
202,6883.233960399845,6883.233960399845,6885.991762564809,6904.107291476509
203,6933.6707441573135,6933.6707441573135,6940.238328652235,6955.410658249804
204,6988.413632512007,6988.413632512007,6988.673407943717,7003.9497301375695
205,7014.210933635301,7014.210933635301,7021.78610770148,7036.093871957616
206,7046.136219286377,7046.136219286377,7046.159855871428,7065.456595903506
207,7060.4411239653855,7060.4411239653855,7065.456595903506,7083.089803130163
208,7111.115500617555,7111.115500617555,7115.352712998852,7134.69672717773
209,7152.054741737159,7152.054741737159,7189.422315023077,7212.517227412487
210,7187.626816273417,7189.422315023077,7212.517227412487,7228.461265578394
211,7225.971953191283,7225.971953191283,7228.461265578394,7247.112610874618
212,7260.972971198254,7260.972971198254,7262.270513312215,7278.21225682107
213,7301.11446590484,7301.11446590484,7325.567997266264,7343.142604657151
214,7339.739267350774,7339.739267350774,7349.469627623633,7366.319800320854
215,7369.417952202059,7369.417952202059,7381.58468414453,7396.16769346402
216,7385.768924260613,7385.768924260613,7396.16769346402,7417.146491967124
217,7399.368424706691,7399.368424706691,7431.200961760972,7449.133933044746
218,7418.487153498722,7431.200961760972,7449.4723064790705,7460.579517001013
219,7471.440900784365,7471.440900784365,7501.730600059871,7517.0579586082495
220,7492.392592974832,7501.730600059871,7528.077530316257,7544.772991716123
221,7504.337851366696,7528.077530316257,7544.772991716123,7564.378032637181
222,7561.7682079099695,7561.7682079099695,7586.744550543538,7601.297597599844
223,7573.260327901101,7586.744550543538,7601.297597599844,7617.358699673958
224,7629.618124586404,7629.618124586404,7654.303927677254,7674.017036453159
225,7666.949412138367,7666.949412138367,7698.618031056097,7720.061736958033
226,7682.196151151524,7698.618031056097,7720.061736958033,7738.89333709753
227,7736.400042250251,7736.400042250251,7759.697877897786,7773.700960489365
228,7761.6772826022525,7761.6772826022525,7779.518475435542,7796.021430789826
229,7803.442047604834,7803.442047604834,7814.431603318465,7832.140158521419
230,7859.533435749991,7859.533435749991,7884.198508861154,7895.148524065481
231,7910.522228611106,7910.522228611106,7914.175543850298,7931.408991088569
232,7937.39483569196,7937.39483569196,7943.688577201456,7952.938661490474
233,7962.975637787109,7962.975637787109,7967.686290486461,7982.482819439508
234,8019.639251083664,8019.639251083664,8046.044044691897,8064.005574564356
235,8060.163916602342,8060.163916602342,8080.653112957183,8096.670310052683
236,8102.960773467682,8102.960773467682,8105.512415367605,8124.6964440529555
237,8114.275217409487,8114.275217409487,8124.6964440529555,8143.040159078686
238,8163.845994711816,8163.845994711816,8190.423798825055,8207.309970490807
239,8178.463907636899,8190.423798825055,8213.99181760689,8231.815451959286
240,8226.391052704075,8226.391052704075,8231.815451959286,8249.384819325951
241,8274.663175830085,8274.663175830085,8291.543461373198,8308.837967336434
242,8330.448410668936,8330.448410668936,8342.630614919883,8359.009092610455
243,8376.280760424477,8376.280760424477,8384.98555680372,8399.817073344648
244,8404.46371511067,8404.46371511067,8410.236800081733,8424.298034751127
245,8423.170169495035,8423.170169495035,8424.426110539489,8443.150999459178
246,8465.59326502315,8465.59326502315,8465.88598139978,8477.704480104208
247,8477.60035961221,8477.60035961221,8479.739941383354,8490.977546935379
248,8516.53987898374,8516.53987898374,8520.662657253592,8530.488568537654
249,8562.952223427137,8562.952223427137,8566.876136997818,8583.607375423258
250,8601.673060439092,8601.673060439092,8610.522436698324,8629.770911274385
251,8654.432934299766,8654.432934299766,8675.75936079888,8694.550836486074
252,8704.73694607734,8704.73694607734,8707.178842376536,8720.67490659822
253,8720.762089587412,8720.762089587412,8764.061311689613,8779.866510139333
254,8755.902325385166,8764.061311689613,8779.866510139333,8798.205603431114
255,8811.019788626825,8811.019788626825,8814.160163016548,8831.900576762684
256,8853.896833439861,8853.896833439861,8859.210978024566,8875.01072068735
