# file created by code in harbour_fns_1896438.jl
# file created on 2026-03-09 at 15:39:37
# parameter: seed = 1896484
# parameter: T = 30000.0
# parameter: lower_interarrival = 11.0
# parameter: upper_interarrival = 59.0
# parameter: mean_process_times = [11.0, 16.0]
# parameter: max_queue = [9223372036854775807, 4]
# parameter: time_units = hours
id,arrival_time,start_service_times,start_service_times,completion_time
1,0.0,0.0,1.2386046410070701,16.647620546814203
2,13.190044726826383,13.190044726826383,22.41480520976063,35.63369243390494
3,51.374855772278394,51.374855772278394,85.53245582673534,102.56146492987664
4,86.88730358578675,86.88730358578675,104.03901959025606,118.73383000885515
5,129.8882432957618,129.8882432957618,135.58435494864463,157.16207522507295
6,188.53464256632464,188.53464256632464,194.09928256710194,207.15846604751226
7,219.52197373899446,219.52197373899446,240.22990071344407,256.8023997832828
8,252.7839695974632,252.7839695974632,256.8023997832828,271.8045766069533
9,293.0205605141764,293.0205605141764,304.85989041532866,319.9672675955452
10,345.52084211430076,345.52084211430076,361.0327219636662,380.2001424680585
11,358.07337213644126,361.0327219636662,380.2001424680585,397.4253120176334
12,390.8300162500683,390.8300162500683,397.4253120176334,417.72763935418465
13,439.0837317461172,439.0837317461172,458.6514099815982,476.7692416650729
14,489.72835531017734,489.72835531017734,497.40840773337186,513.8027687622757
15,538.5203129817555,538.5203129817555,550.526467410345,565.0810953008213
16,591.8619950031492,591.8619950031492,596.6867922392521,611.308942492631
17,642.871592696804,642.871592696804,644.4938930196173,660.2727585918487
18,694.0656719647374,694.0656719647374,700.8596375464319,720.3253729399607
19,727.8634422271203,727.8634422271203,768.8510728660128,787.2427804550671
20,780.0369217164329,780.0369217164329,787.2427804550671,801.2939482406276
21,824.963211553165,824.963211553165,841.727437517642,857.2389121568477
22,837.1216832111517,841.727437517642,858.4468109320113,872.7512842223224
23,892.8409131012102,892.8409131012102,922.1324053464159,936.377726755259
24,931.4127393208067,931.4127393208067,945.4483864942486,955.5831187347814
25,947.1891180168823,947.1891180168823,963.2324092512574,982.8071449336475
26,985.5095034295922,985.5095034295922,986.5381807630205,997.8748403034848
27,1020.5741525969235,1020.5741525969235,1048.9129015332794,1064.8077876340801
28,1068.7788204695944,1068.7788204695944,1077.1865040853013,1090.2826969055368
29,1098.8715071047902,1098.8715071047902,1122.7570721601678,1141.7127941849003
30,1145.120239346264,1145.120239346264,1166.6273053044615,1188.931690062574
31,1165.2886880882002,1166.6273053044615,1188.931690062574,1206.4891537205895
32,1182.632057840803,1188.3530304935869,1206.4891537205895,1227.3763537551713
33,1230.1855027397162,1230.1855027397162,1242.2357180020474,1261.7209369335833
34,1255.4206159091364,1255.4206159091364,1263.1208389600188,1279.0182183872394
35,1286.334838281309,1286.334838281309,1295.297847530701,1314.9190617538206
36,1336.7044077670434,1336.7044077670434,1341.2590384347975,1356.6241282802434
37,1384.759704134262,1384.759704134262,1400.2502040591212,1411.6879619605456
38,1442.6675836411405,1442.6675836411405,1455.0004159235857,1468.4882991747445
39,1484.5402823429783,1484.5402823429783,1485.2657447847319,1501.5448608469658
40,1496.3060674795267,1496.3060674795267,1512.2940169730402,1530.6664910332422
41,1545.8607704878004,1545.8607704878004,1547.2968098223357,1563.360621883772
42,1559.3853677333348,1559.3853677333348,1572.7450602167469,1590.6362787518901
43,1594.2566174908366,1594.2566174908366,1616.095606801565,1634.2777725425492
44,1636.677188327229,1636.677188327229,1649.882806794428,1667.2420220195097
45,1688.995985222283,1688.995985222283,1693.0363251546528,1713.6057838337567
46,1713.2919336041973,1713.2919336041973,1738.3603654107535,1755.4611580021121
47,1728.0827496860684,1738.3603654107535,1755.4611580021121,1770.2320255680995
48,1773.5317650035645,1773.5317650035645,1780.8558505457056,1801.2581101379153
49,1832.1484937100665,1832.1484937100665,1837.3281314562823,1848.773405650085
50,1882.074994284822,1882.074994284822,1899.4939703834498,1920.2668197148748
51,1940.6885009352013,1940.6885009352013,1960.0644959265333,1980.4882496319733
52,1991.3487382197998,1991.3487382197998,1991.3647670527985,2007.318788702031
53,2030.9401070505378,2030.9401070505378,2054.691617697564,2071.622669123203
54,2066.1562609255493,2066.1562609255493,2078.46931134767,2089.570182323679
55,2105.319147040645,2105.319147040645,2145.852887177982,2154.1070453801
56,2121.1319611503977,2145.852887177982,2154.1070453801,2171.4095665180057
57,2150.394286381583,2150.394286381583,2171.4095665180057,2182.832999370771
58,2170.7319269204327,2170.7319269204327,2194.3272772353534,2215.7504805094895
59,2225.041382013221,2225.041382013221,2245.873047839099,2262.977561965176
60,2254.737380615202,2254.737380615202,2267.363849085149,2280.2758468301026
61,2297.928216481602,2297.928216481602,2315.380711798363,2328.7452159513664
62,2319.12308978545,2319.12308978545,2328.7452159513664,2341.866717632407
63,2339.1383537165502,2339.1383537165502,2361.4206769501875,2381.757651624055
64,2352.653106630791,2361.4206769501875,2381.757651624055,2396.408801085446
65,2380.9386809495772,2380.9386809495772,2396.408801085446,2407.2029936555723
66,2420.42403289782,2420.42403289782,2434.283722390429,2450.807396695758
67,2470.3943184284385,2470.3943184284385,2498.037809805793,2514.0704534947204
68,2528.818035232386,2528.818035232386,2542.790824641517,2556.0398665937532
69,2541.4196565192783,2542.790824641517,2556.0398665937532,2572.351848755856
70,2577.428967852148,2577.428967852148,2594.720094770839,2614.9865009749424
71,2623.3454098840934,2623.3454098840934,2636.0939005234322,2651.37650518051
72,2668.2614824755346,2668.2614824755346,2682.56418550782,2697.3187924695335
73,2695.738328972048,2695.738328972048,2711.363899798155,2729.6498834450595
74,2727.0720315504113,2727.0720315504113,2729.6498834450595,2745.118625549008
75,2755.216527847341,2755.216527847341,2757.371829725769,2778.194052369244
76,2780.6537586913955,2780.6537586913955,2792.8931453493033,2808.6850243858044
77,2837.0747253565432,2837.0747253565432,2846.993944294984,2865.262584747298
78,2848.090204650665,2848.090204650665,2865.262584747298,2885.3777903992795
79,2882.413266732952,2882.413266732952,2885.3777903992795,2902.0044610543555
80,2929.665895482376,2929.665895482376,2932.0911182400955,2948.7222565830584
81,2970.812108551137,2970.812108551137,2983.951350437524,3004.9092845685814
82,3013.4142743547814,3013.4142743547814,3021.4868768870306,3040.09311926269
83,3046.6541906272414,3046.6541906272414,3048.73616034386,3060.4507665995593
84,3067.7944403640095,3067.7944403640095,3112.6319399448107,3125.9497444870417
85,3121.8869660920086,3121.8869660920086,3132.9062204386782,3148.5525524894306
86,3150.6325093110668,3150.6325093110668,3159.0266545748914,3174.646564528884
87,3182.5856432822684,3182.5856432822684,3212.430589133234,3232.2209734607713
88,3200.0950273370913,3212.430589133234,3232.2209734607713,3253.2518203421387
89,3233.2681781906163,3233.2681781906163,3253.2518203421387,3265.920152549208
90,3290.716893081523,3290.716893081523,3299.8791243937835,3312.9170859046885
91,3331.634013274567,3331.634013274567,3345.097128035047,3358.6494402225585
92,3348.855377275547,3348.855377275547,3365.8697673157835,3381.721033085041
93,3369.4133967082403,3369.4133967082403,3381.721033085041,3392.954766509903
94,3391.945855101476,3391.945855101476,3418.4682464964335,3425.202193306215
95,3449.7037467332143,3449.7037467332143,3464.7354003746186,3478.062080296226
96,3492.566846389587,3492.566846389587,3518.0195374414848,3539.1638492121697
97,3513.2428575050662,3518.0195374414848,3539.1638492121697,3557.574933666416
98,3527.7291795486253,3527.7291795486253,3557.574933666416,3574.7667249707692
99,3569.3988157661956,3569.3988157661956,3574.7667249707692,3586.457758379323
100,3588.381174099695,3588.381174099695,3590.0895039367842,3604.1997379780423
101,3632.7916879472996,3632.7916879472996,3636.7776946412937,3653.098019836962
102,3664.2725154360555,3664.2725154360555,3671.7168464046263,3684.27393693935
103,3687.4139311308113,3687.4139311308113,3712.6643138001828,3726.1157643311153
104,3724.1540126356435,3724.1540126356435,3726.304091250272,3743.960126952535
105,3773.56850018409,3773.56850018409,3778.7140929993,3797.7772649862704
106,3828.6599704120645,3828.6599704120645,3870.5364998873147,3879.061460246129
107,3842.6345538066053,3870.5364998873147,3879.061460246129,3890.206760212817
108,3858.5819412369024,3870.6731355974534,3890.206760212817,3904.050054958169
109,3911.6752066465683,3911.6752066465683,3927.8300137189417,3945.7343741104246
110,3923.781035530878,3927.8300137189417,3945.7343741104246,3960.1001624110427
111,3968.3789346617964,3968.3789346617964,3974.7082917672333,3988.1728215729145
112,3994.495909741633,3994.495909741633,4000.8213358584967,4015.3329265444795
113,4041.058302286783,4041.058302286783,4061.7173667833035,4082.9105741436642
114,4077.0031923810902,4077.0031923810902,4083.5065493294956,4101.151779981303
115,4130.347383317863,4130.347383317863,4130.791188578495,4141.881930977241
116,4181.549500175791,4181.549500175791,4194.75576374357,4211.474870848786
117,4234.652392364619,4234.652392364619,4236.548596680654,4252.322455563229
118,4290.595731553799,4290.595731553799,4297.532804180338,4315.706385191724
119,4326.771542735974,4326.771542735974,4328.784456493984,4345.092382004431
120,4354.546403781604,4354.546403781604,4361.212837848169,4378.955091452313
121,4394.6577504631105,4394.6577504631105,4404.8734964440355,4421.105792000136
122,4439.114217871045,4439.114217871045,4444.330371221509,4460.0826880817895
123,4469.764827488371,4469.764827488371,4475.3527107117525,4487.012559044547
124,4499.714695195759,4499.714695195759,4518.4413293070465,4532.426436532151
125,4551.88667919623,4551.88667919623,4575.151779170376,4594.794421817659
126,4589.328793207987,4589.328793207987,4594.794421817659,4613.543506024572
127,4615.241532774222,4615.241532774222,4625.099815867331,4634.393701102478
128,4640.655018146704,4640.655018146704,4641.006825723068,4661.883882645784
129,4652.284450611825,4652.284450611825,4661.883882645784,4678.7579963738835
130,4663.8758835697645,4663.8758835697645,4678.7579963738835,4692.074507821634
131,4722.845769295191,4722.845769295191,4732.014249953911,4745.516839336312
132,4765.265464599885,4765.265464599885,4766.858167516898,4784.232789435344
133,4808.68388060798,4808.68388060798,4814.902506722674,4830.25031023423
134,4834.807971644587,4834.807971644587,4847.43946226549,4860.154364311963
135,4846.569762037928,4847.43946226549,4860.154364311963,4876.380191028276
136,4880.4648599318825,4880.4648599318825,4882.604969182493,4897.629339026191
137,4907.482180230771,4907.482180230771,4918.23365575286,4932.690228403073
138,4938.330730829549,4938.330730829549,4944.0674431064235,4958.9248682976095
139,4964.514164444879,4964.514164444879,4967.004448543754,4980.450636639949
140,4996.745805552967,4996.745805552967,4997.639386426592,5011.729012479331
141,5034.750533150878,5034.750533150878,5036.7512000763145,5052.188692578926
142,5061.071851632458,5061.071851632458,5062.808232606841,5079.351775979119
143,5111.252189127979,5111.252189127979,5121.169126737816,5133.314074557754
144,5169.281268477534,5169.281268477534,5190.350340765245,5206.363658548293
145,5221.977897502728,5221.977897502728,5271.266907029817,5290.437268636484
146,5272.059203639449,5272.059203639449,5290.437268636484,5300.749221778271
147,5290.2120510341065,5290.2120510341065,5300.749221778271,5316.849904836728
148,5314.611315470208,5314.611315470208,5318.761884238678,5338.366804664148
149,5370.094488855421,5370.094488855421,5375.685560252345,5391.411267898343
150,5385.817444716157,5385.817444716157,5393.030289374471,5409.437618180296
151,5408.046396992679,5408.046396992679,5415.135664334288,5429.524223977464
152,5430.85283165517,5430.85283165517,5433.016903271051,5447.461940002526
153,5449.048345849299,5449.048345849299,5473.703600755498,5489.512865505231
154,5497.978633802302,5497.978633802302,5500.5619216064015,5521.17228492924
155,5520.245167731722,5520.245167731722,5538.118131124114,5554.182433233769
156,5553.233039938523,5553.233039938523,5572.319403477595,5587.434588280498
157,5595.159515843411,5595.159515843411,5603.9305505622515,5622.4998443827735
158,5609.842289199479,5609.842289199479,5623.5940520282875,5640.070467580547
159,5648.6864299083145,5648.6864299083145,5651.017965025476,5668.448634186273
160,5666.223294971371,5666.223294971371,5688.310451974712,5700.736856666983
161,5706.5988362024555,5706.5988362024555,5735.9417986472035,5757.6371429987075
162,5762.339011591236,5762.339011591236,5769.32355242711,5785.078505885595
163,5799.568152451064,5799.568152451064,5805.018125378463,5824.964846360798
164,5818.021034954592,5818.021034954592,5824.964846360798,5840.395661911762
165,5865.088559266897,5865.088559266897,5867.831647741552,5880.61138411488
166,5877.462712670377,5877.462712670377,5880.61138411488,5892.258014721263
167,5928.005997317441,5928.005997317441,5929.1159542792275,5944.2347251863375
168,5974.643964283351,5974.643964283351,6018.837036662861,6032.116863243288
169,6017.197819654336,6018.837036662861,6033.70684044014,6050.4663329541845
170,6073.358074069232,6073.358074069232,6094.896078086385,6105.666321826346
171,6125.322839600395,6125.322839600395,6174.761120296001,6189.059300939515
172,6180.067234167312,6180.067234167312,6190.216002273953,6203.715440222796
173,6227.509735302628,6227.509735302628,6249.002897151934,6261.847379615749
174,6267.579009574154,6267.579009574154,6298.366555101574,6314.076606649463
175,6316.065832706935,6316.065832706935,6318.239073097927,6337.140382378202
176,6331.480198719121,6331.480198719121,6344.710419962403,6365.6277534305445
177,6384.834829198084,6384.834829198084,6390.409096577153,6410.127589551487
178,6397.4272809216345,6397.4272809216345,6410.127589551487,6419.932862378199
179,6447.5921839521625,6447.5921839521625,6452.2425541556195,6463.858621084393
180,6499.872164782352,6499.872164782352,6511.669737180117,6531.943185275817
181,6556.643989436932,6556.643989436932,6591.1911309407515,6606.066165523753
182,6609.387230317125,6609.387230317125,6631.253486020092,6642.080552256005
183,6666.591913927631,6666.591913927631,6672.323418886133,6693.580437867049
184,6694.051729086918,6694.051729086918,6695.0515472924935,6711.125289293913
185,6713.813095011688,6713.813095011688,6725.416495785647,6739.527507015863
186,6752.483188841442,6752.483188841442,6763.532693073293,6782.720763888826
187,6786.060846065422,6786.060846065422,6793.199310902813,6809.899705581991
188,6799.556804447485,6799.556804447485,6809.899705581991,6824.858284459661
189,6834.444751841516,6834.444751841516,6836.855378681509,6849.644386460849
190,6860.883524266007,6860.883524266007,6884.602963803841,6900.548654839058
191,6874.266702853108,6884.602963803841,6900.548654839058,6916.299425760516
192,6932.057572532358,6932.057572532358,6934.031549964254,6950.116492664824
193,6960.104385861618,6960.104385861618,6963.173034549931,6982.97094905799
194,6992.232965129337,6992.232965129337,6993.135833296984,7009.512036875925
195,7013.068455054831,7013.068455054831,7020.49073360833,7039.000796648839
196,7054.707515261945,7054.707515261945,7084.462897104387,7097.6260053104315
197,7108.62781048712,7108.62781048712,7110.7301302298465,7121.499418805285
198,7122.675136548209,7122.675136548209,7162.455832276008,7178.255431770745
199,7148.602653449559,7162.455832276008,7178.255431770745,7194.966864947969
200,7195.087802192708,7195.087802192708,7201.408476574257,7214.760095789298
201,7244.400256484424,7244.400256484424,7299.8010022664,7318.553501852351
202,7279.085903260221,7299.8010022664,7318.553501852351,7334.9451591702045
203,7301.917437107845,7306.502602070265,7334.9451591702045,7345.823533137585
204,7340.588126346039,7340.588126346039,7345.823533137585,7362.171038786303
205,7368.5397571528465,7368.5397571528465,7378.630475575872,7393.790646780345
206,7413.486561533271,7413.486561533271,7464.964721162023,7481.530347182067
207,7468.515022115989,7468.515022115989,7484.69492111354,7503.155486427167
208,7492.157740049688,7492.157740049688,7510.275365372499,7527.145265995623
209,7505.8294747489135,7510.275365372499,7527.145265995623,7540.97210833585
210,7523.671182807113,7523.671182807113,7573.55157819971,7589.269743138712
211,7582.526708015234,7582.526708015234,7598.167094641561,7617.29538922417
212,7639.947350913528,7639.947350913528,7641.122692033247,7659.886645734633
213,7688.903132976731,7688.903132976731,7699.664617695072,7715.592369876013
214,7736.951516395314,7736.951516395314,7748.011223809812,7765.060269137618
215,7763.530201736491,7763.530201736491,7781.513110230278,7801.488654451698
216,7808.045040520298,7808.045040520298,7814.894076739975,7830.551846552164
217,7843.6215590971615,7843.6215590971615,7845.179390890309,7860.156069538495
218,7875.18130297315,7875.18130297315,7896.553596807132,7909.558924606467
219,7899.7774558251795,7899.7774558251795,7929.921473478843,7942.531733710612
220,7914.354586645474,7929.921473478843,7942.531733710612,7959.61292158498
221,7942.388279676874,7942.388279676874,7965.299309435991,7981.294107550253
222,8000.266605988694,8000.266605988694,8013.674701429749,8032.122352276553
223,8022.379505289747,8022.379505289747,8032.122352276553,8050.973826799607
224,8058.694591550793,8058.694591550793,8063.841935681527,8076.663699698995
225,8081.99651449014,8081.99651449014,8090.113828880391,8104.871529495323
226,8104.728262981852,8104.728262981852,8105.732411672205,8124.217489390794
227,8125.348874516246,8125.348874516246,8136.036409530105,8158.966955525007
228,8157.876166844748,8157.876166844748,8177.674226180485,8190.905957458224
229,8182.802320688306,8182.802320688306,8203.265552755822,8219.976888759675
230,8210.157059035724,8210.157059035724,8219.976888759675,8238.088520349032
231,8259.220421097478,8259.220421097478,8267.422834231029,8288.454607623959
232,8271.255449891516,8271.255449891516,8288.454607623959,8306.402032457989
233,8322.788463831957,8322.788463831957,8342.150243086637,8361.907639650108
234,8339.942122476788,8342.150243086637,8361.907639650108,8377.404182609731
235,8377.322285764583,8377.322285764583,8386.4260196647,8401.227364966673
236,8400.516221822363,8400.516221822363,8401.227364966673,8420.973586718641
237,8432.663789970695,8432.663789970695,8435.749744959603,8456.331335620485
238,8471.316529197074,8471.316529197074,8495.677998210042,8510.868091990169
239,8527.433477231218,8527.433477231218,8537.808649486853,8554.488563636613
240,8583.987176992016,8583.987176992016,8596.96346043924,8614.293601332327
241,8608.729157488522,8608.729157488522,8615.849736421742,8636.090744945177
242,8620.649239024055,8620.649239024055,8648.45630991427,8664.134707569769
243,8635.569794674644,8648.45630991427,8664.134707569769,8682.482643489737
244,8694.079537913527,8694.079537913527,8713.960255826465,8722.69546749786
245,8705.36690779087,8713.960255826465,8722.69546749786,8743.15789136346
246,8749.00883691877,8749.00883691877,8774.058188090366,8792.751524492007
247,8781.94865059019,8781.94865059019,8792.751524492007,8809.555759130766
248,8806.847592370943,8806.847592370943,8815.39575665439,8832.460584950984
249,8863.286917705369,8863.286917705369,8863.676092964128,8880.047213083599
250,8890.964841353802,8890.964841353802,8892.462623327405,8910.545950189591
251,8930.784739587105,8930.784739587105,8940.923007166686,8955.08155608965
252,8970.106307316391,8970.106307316391,8982.435999165114,8997.852263442779
253,9024.7518470858,9024.7518470858,9076.318315272396,9094.392593268485
254,9056.923819336638,9076.318315272396,9094.392593268485,9112.953496820333
255,9111.605011454412,9111.605011454412,9125.760078162426,9141.375639146485
256,9139.594206832011,9139.594206832011,9141.511363824084,9157.036367408711
