# file created by code in harbour_fns_1896438.jl
# file created on 2026-03-09 at 15:39:40
# parameter: seed = 1896536
# parameter: T = 30000.0
# parameter: lower_interarrival = 11.0
# parameter: upper_interarrival = 59.0
# parameter: mean_process_times = [11.0, 16.0]
# parameter: max_queue = [9223372036854775807, 4]
# parameter: time_units = hours
id,arrival_time,start_service_times,start_service_times,completion_time
1,0.0,0.0,8.432766930946357,28.41702129390607
2,26.953929368291043,26.953929368291043,32.04704190313748,47.477833361686336
3,73.60813186417376,73.60813186417376,93.77277057764928,112.22432352011592
4,107.86734436111944,107.86734436111944,112.22432352011592,126.66089201944175
5,163.78227943929545,163.78227943929545,173.44160175790046,186.0360541390574
6,194.94327485486343,194.94327485486343,196.17209036472735,209.50976645837943
7,212.3155827258511,212.3155827258511,221.43137208093512,236.59241836468652
8,268.3401445972689,268.3401445972689,275.5418523379108,290.03174170372375
9,295.72713737739184,295.72713737739184,304.16142446180254,322.74101196142306
10,335.7348001423204,335.7348001423204,356.04265623508553,372.12955430118905
11,383.9866552744532,383.9866552744532,386.38952138700785,405.88553599054364
12,433.16658657529723,433.16658657529723,443.01805564954896,460.3275703017299
13,478.3097515728875,478.3097515728875,498.7187285894818,513.0386860725067
14,511.53282569661485,511.53282569661485,516.3730600328682,531.2973172577113
15,570.1965504096843,570.1965504096843,576.6592942820532,594.2808191185864
16,625.1592199832911,625.1592199832911,632.364598551343,648.5141704229787
17,678.1599125153588,678.1599125153588,685.3271518817849,693.623212529472
18,722.9835195184895,722.9835195184895,734.5375778624124,746.6440090303594
19,773.9381257497685,773.9381257497685,794.2249207158385,807.1995724468363
20,818.2891131601493,818.2891131601493,818.6710289360866,832.4890601955303
21,834.5057711317497,834.5057711317497,843.8455952823022,855.6137941279118
22,857.5906976278994,857.5906976278994,874.9057075206213,884.0099283694835
23,910.1680847930775,910.1680847930775,964.4780310655386,978.8409202626348
24,962.1622879079048,964.4780310655386,978.8409202626348,996.0975165426031
25,986.7315560373493,986.7315560373493,996.0975165426031,1017.5975226504984
26,1044.4138696176985,1044.4138696176985,1047.265299556846,1064.4793006740908
27,1068.100845707162,1068.100845707162,1088.917159688672,1102.4535735888749
28,1106.7352200407768,1106.7352200407768,1108.1809442536655,1119.8071951457434
29,1137.5515618493764,1137.5515618493764,1199.9069830052938,1215.7975246855128
30,1152.7143563645343,1199.9069830052938,1215.7975246855128,1234.763198941287
31,1184.0224079874968,1201.7530082219844,1234.763198941287,1249.9309351601444
32,1231.3488265200294,1231.3488265200294,1277.8452204615537,1291.2647346907195
33,1248.0041695779491,1277.8452204615537,1291.2647346907195,1303.7238269292989
34,1295.1937654859507,1295.1937654859507,1303.7238269292989,1315.2197585536237
35,1322.6995316010662,1322.6995316010662,1338.1503761602357,1355.2014895069485
36,1375.4827919013649,1375.4827919013649,1394.1407603142327,1404.4957375566428
37,1411.9312351017957,1411.9312351017957,1413.374985279768,1427.7265312695704
38,1467.1483418708713,1467.1483418708713,1477.0186131191922,1491.3539923331184
39,1496.9306856978512,1496.9306856978512,1502.779309747723,1522.0334491163176
40,1538.7166053626952,1538.7166053626952,1558.6383795764773,1575.030122022195
41,1578.2193901214691,1578.2193901214691,1624.2683708369761,1642.198207850456
42,1591.039312627535,1624.2683708369761,1654.0412048213748,1668.5752073221008
43,1647.3472906550476,1654.0412048213748,1673.1715928545816,1692.8249098202523
44,1680.410119892143,1680.410119892143,1692.8249098202523,1707.9609493934513
45,1701.179314656222,1701.179314656222,1707.9609493934513,1727.6305768799677
46,1721.3598312427887,1721.3598312427887,1727.6305768799677,1739.6193329089558
47,1745.709144176301,1745.709144176301,1782.3044133933693,1798.9811177973788
48,1773.0476336779784,1782.3044133933693,1798.9811177973788,1813.9185632910126
49,1801.8474665581675,1801.8474665581675,1813.9185632910126,1831.6241377973338
50,1839.6097001315475,1839.6097001315475,1844.1242453564114,1865.0308658205372
51,1858.5794785586515,1858.5794785586515,1865.747497380778,1881.2500926398536
52,1894.992925179967,1894.992925179967,1905.9321421779784,1919.6340114477985
53,1940.9085886470068,1940.9085886470068,1968.8107457011306,1985.9037996659256
54,1989.8624657884102,1989.8624657884102,1998.2899886575785,2015.5110907002177
55,2006.600968508903,2006.600968508903,2015.5110907002177,2033.0830383558305
56,2063.0869767662134,2063.0869767662134,2070.403460755678,2089.1098173295636
57,2100.512615666937,2100.512615666937,2103.971689790731,2121.5209472282063
58,2150.659855324426,2150.659855324426,2151.1730953269875,2172.6590175611864
59,2190.7599668209314,2190.7599668209314,2207.4673199277186,2222.4722771196152
60,2228.910203879344,2228.910203879344,2237.3062868222273,2250.4510148835793
61,2276.229740994536,2276.229740994536,2279.4526827539626,2296.0357461744043
62,2326.4862903275903,2326.4862903275903,2332.3797068813815,2351.52079484649
63,2365.8343422639314,2365.8343422639314,2368.6739810067006,2387.280019203222
64,2385.000783218413,2385.000783218413,2400.607244565602,2420.753631370726
65,2437.483469841018,2437.483469841018,2450.557295523888,2467.039001835858
66,2461.572685478701,2461.572685478701,2483.844540629573,2497.3377156340002
67,2512.9585768077577,2512.9585768077577,2531.8983191106922,2547.911813278778
68,2557.393649904506,2557.393649904506,2560.252414038991,2577.1585131897705
69,2572.5730108377315,2572.5730108377315,2583.2192845647724,2597.983151524005
70,2623.258756285907,2623.258756285907,2657.3287547558416,2667.6250633715977
71,2637.8373158595386,2657.3287547558416,2674.897073679051,2689.9646379232345
72,2683.160572618486,2683.160572618486,2695.705335179254,2711.8513349844743
73,2716.2870981901606,2716.2870981901606,2722.4462889854476,2738.8315922837564
74,2769.5466961141274,2769.5466961141274,2774.5649356737185,2788.3672193459442
75,2826.436067063244,2826.436067063244,2832.91135100254,2847.8990106555807
76,2881.023987720975,2881.023987720975,2889.9433308507932,2902.1994803249017
77,2900.270578594832,2900.270578594832,2904.158937058615,2921.3728455715413
78,2913.2528705622994,2913.2528705622994,2921.3728455715413,2936.3669380142746
79,2942.692169802358,2942.692169802358,2944.268373629269,2959.3193321408457
80,2977.5760625370795,2977.5760625370795,2984.1239918481606,3004.3896264859463
81,3000.2615656926714,3000.2615656926714,3007.0242541339035,3025.0693433089573
82,3046.7186395854055,3046.7186395854055,3051.9535549904977,3067.65884314781
83,3103.437618659789,3103.437618659789,3108.2622174591797,3120.277672606293
84,3139.8409553082083,3139.8409553082083,3167.417847664869,3186.8616070637377
85,3183.7286917391048,3183.7286917391048,3186.8616070637377,3204.632323274028
86,3235.217259913231,3235.217259913231,3237.6858923771947,3251.0738749510792
87,3275.0515664099057,3275.0515664099057,3278.333770416353,3296.54384455035
88,3297.6785519791083,3297.6785519791083,3328.221976894235,3347.022275757936
89,3316.458339389551,3328.221976894235,3347.022275757936,3360.2453255075307
90,3327.5837478327508,3332.4597842137623,3360.2453255075307,3378.014646393623
91,3348.463110798251,3349.2654488548483,3378.014646393623,3389.1286308379927
92,3378.509773139886,3378.509773139886,3389.1286308379927,3408.670041320135
93,3434.3775294593806,3434.3775294593806,3436.859836858036,3455.882949800032
94,3487.2313824352145,3487.2313824352145,3494.8960892631717,3513.682953966291
95,3543.654392674004,3543.654392674004,3562.7059136368675,3573.6530583866543
96,3564.115418446968,3564.115418446968,3573.6530583866543,3588.2815502464196
97,3617.225384020831,3617.225384020831,3622.3401367794063,3636.6434558523492
98,3670.3397722630466,3670.3397722630466,3678.9397534542677,3700.0652711252483
99,3700.1136533236427,3700.1136533236427,3712.9645233690885,3731.065451405707
100,3755.0385567515646,3755.0385567515646,3757.010657197166,3769.7108555383547
101,3800.0188607525183,3800.0188607525183,3817.1651001002424,3836.9227378750625
102,3845.3364121454742,3845.3364121454742,3865.496943252372,3885.974575204105
103,3866.3265117944134,3866.3265117944134,3885.974575204105,3899.8490809438845
104,3907.1601807083002,3907.1601807083002,3913.080320862082,3929.8309001847515
105,3923.154366061405,3923.154366061405,3929.8309001847515,3952.3104134503583
106,3978.9237255573435,3978.9237255573435,3983.1405374491496,3998.971177696132
107,4003.489691870909,4003.489691870909,4005.9266950849146,4025.380410072888
108,4033.0368551807933,4033.0368551807933,4044.3372372729937,4061.3574430867093
109,4048.9515839129845,4048.9515839129845,4066.7248227263617,4080.436568443964
110,4069.3707729572952,4069.3707729572952,4090.3731615192764,4106.080256083014
111,4099.481993723839,4099.481993723839,4106.080256083014,4127.56527860278
112,4139.770907260397,4139.770907260397,4151.767479438035,4162.935231504168
113,4164.577336450878,4164.577336450878,4179.786564880995,4202.797974818734
114,4180.2339865632,4180.2339865632,4202.797974818734,4216.656035295309
115,4209.042039402721,4209.042039402721,4216.656035295309,4237.953770630348
116,4242.0690423231445,4242.0690423231445,4272.102815370345,4289.446227907018
117,4268.877922021807,4272.102815370345,4289.446227907018,4308.450409919506
118,4318.240820956208,4318.240820956208,4335.651173086759,4351.442618824413
119,4329.69393620763,4335.651173086759,4351.442618824413,4373.024468417098
120,4342.397501016867,4342.397501016867,4373.024468417098,4388.365448684095
121,4382.634841762669,4382.634841762669,4388.499807523626,4403.380372373311
122,4404.6769188803255,4404.6769188803255,4411.355889899004,4431.574234153616
123,4429.493340895194,4429.493340895194,4434.832713753287,4452.229562485569
124,4455.845048242752,4455.845048242752,4494.139007405032,4507.865078097908
125,4478.719806400145,4494.139007405032,4533.25950568781,4548.4807682800765
126,4533.549316401654,4533.549316401654,4548.4807682800765,4564.2569439759445
127,4551.944049855834,4551.944049855834,4564.2569439759445,4579.419031141756
128,4578.345365309419,4578.345365309419,4596.919812166061,4608.602866434521
129,4595.4554651517265,4596.919812166061,4608.602866434521,4622.598066140039
130,4642.652017275504,4642.652017275504,4647.394434784689,4660.064227435306
131,4661.504900428042,4661.504900428042,4661.541601173845,4681.524820606418
132,4715.883186390427,4715.883186390427,4716.1441914023635,4735.106600369063
133,4743.893694639526,4743.893694639526,4748.103167673156,4763.002145322131
134,4776.731282386881,4776.731282386881,4791.695959991842,4810.740973506145
135,4800.168527872577,4800.168527872577,4810.740973506145,4826.828232997579
136,4840.930814147376,4840.930814147376,4842.600787656844,4857.2357165835365
137,4879.417149300145,4879.417149300145,4898.977839594467,4910.846582135229
138,4898.7382152949785,4898.977839594467,4928.82117632063,4944.025441177694
139,4929.239358862154,4929.239358862154,4944.025441177694,4951.254389847589
140,4943.573079921509,4943.573079921509,4955.096457851386,4973.277964134783
141,4957.466769425025,4957.466769425025,4973.277964134783,4988.143658264531
142,4994.848909499695,4994.848909499695,5010.602891583707,5024.144761728952
143,5048.251396913947,5048.251396913947,5103.1276962647335,5121.706279846784
144,5087.966218230877,5103.1276962647335,5121.706279846784,5135.786561198948
145,5122.660883409045,5122.660883409045,5145.528072356893,5163.602344424344
146,5168.352054128323,5168.352054128323,5180.328124018107,5193.963862602892
147,5221.269796225819,5221.269796225819,5233.115876599088,5244.1067167451365
148,5257.245275964255,5257.245275964255,5267.098201517289,5280.492045641725
149,5297.772402582419,5297.772402582419,5308.1342091225115,5324.748073220874
150,5345.500549940215,5345.500549940215,5355.24968168442,5377.221912451839
151,5377.495251372882,5377.495251372882,5378.3808213263455,5391.590578384724
152,5413.5733399479695,5413.5733399479695,5418.595538495646,5434.754031078176
153,5430.493099010294,5430.493099010294,5437.928596701653,5453.213644716016
154,5452.54834547204,5452.54834547204,5456.132850990932,5481.830235266618
155,5467.398045707203,5467.398045707203,5481.830235266618,5496.960765976734
156,5518.978247859885,5518.978247859885,5524.192100563914,5539.6520968862915
157,5569.887303296751,5569.887303296751,5571.284873788201,5589.08188505634
158,5582.314003353725,5582.314003353725,5589.08188505634,5605.988706977183
159,5598.5095479055535,5598.5095479055535,5605.988706977183,5616.92658122615
160,5629.176929285371,5629.176929285371,5638.847606939357,5657.255839027569
161,5658.064281043961,5658.064281043961,5700.85397313546,5720.4211212675145
162,5695.741837281369,5700.85397313546,5720.4211212675145,5736.237776860384
163,5740.811415495324,5740.811415495324,5752.752691302815,5769.294910315774
164,5759.55984914871,5759.55984914871,5776.589982302226,5793.490090648913
165,5791.429906397423,5791.429906397423,5800.041816777042,5823.257542538662
166,5830.237464362198,5830.237464362198,5852.853389699794,5866.804334301582
167,5886.721525601107,5886.721525601107,5897.624664640925,5915.826289503572
168,5911.63050214523,5911.63050214523,5916.259663257472,5934.377803971175
169,5942.197207862945,5942.197207862945,5950.978768107916,5971.288126728433
170,5969.917925086731,5969.917925086731,5979.13807552505,6002.693628302051
171,5993.066694542299,5993.066694542299,6002.693628302051,6020.006376698235
172,6023.414411623256,6023.414411623256,6034.980338404054,6052.946973668079
173,6056.454532533529,6056.454532533529,6058.510973486057,6073.5727329460615
174,6102.224242668446,6102.224242668446,6102.270822582014,6118.016817301667
175,6119.890913693952,6119.890913693952,6120.732432397422,6139.872032944261
176,6140.101339957581,6140.101339957581,6141.195964369451,6158.8988676377585
177,6160.559774665696,6160.559774665696,6166.012133827597,6182.312075605203
178,6193.270439907809,6193.270439907809,6197.789700109496,6211.7950786044585
179,6208.288872098399,6208.288872098399,6215.99017733996,6234.009285913454
180,6242.715383693411,6242.715383693411,6256.368609942423,6267.579165485784
181,6297.722849062929,6297.722849062929,6305.373538908103,6319.8502092097015
182,6314.123258205657,6314.123258205657,6373.087288512045,6388.902583058649
183,6357.374393538523,6373.087288512045,6388.902583058649,6404.203630081173
184,6410.922395533908,6410.922395533908,6422.236966526133,6437.930193750313
185,6465.977576058593,6465.977576058593,6486.269870898852,6501.908279209656
186,6480.844505724543,6486.269870898852,6503.478838091483,6518.217344154568
187,6521.131843989051,6521.131843989051,6525.644365896782,6542.66397017669
188,6550.055316297019,6550.055316297019,6568.752533083999,6585.666175987912
189,6568.074856491761,6568.752533083999,6585.666175987912,6600.66786877537
190,6589.232117578494,6589.232117578494,6600.66786877537,6616.975554373017
191,6645.469059218737,6645.469059218737,6654.843150558701,6666.8827502840295
192,6669.728719215253,6669.728719215253,6679.126069074645,6692.258614950858
193,6688.405933378699,6688.405933378699,6698.943238880286,6707.930256814445
194,6734.5768422923165,6734.5768422923165,6748.786881325422,6764.808216615291
195,6757.906831464632,6757.906831464632,6769.6263625176825,6784.23296942117
196,6811.22304487243,6811.22304487243,6812.649110817186,6832.954033806725
197,6833.665196811617,6833.665196811617,6853.636940243538,6867.848213881388
198,6853.983416176701,6853.983416176701,6867.848213881388,6880.323115767432
199,6897.5158763198715,6897.5158763198715,6903.8857393206235,6915.878079136434
200,6921.104743665217,6921.104743665217,6931.285597849367,6949.544953467122
201,6947.724511778477,6947.724511778477,6951.351355300509,6967.275852500284
202,6999.274945315389,6999.274945315389,7013.0943315261475,7031.2261737835
203,7044.74851382972,7044.74851382972,7061.88140464909,7076.822531186614
204,7067.594731553756,7067.594731553756,7076.822531186614,7094.497766102584
205,7107.055308246616,7107.055308246616,7108.786334647384,7130.614539529066
206,7136.533423930011,7136.533423930011,7137.598390300721,7156.0885221561975
207,7189.376489378064,7189.376489378064,7192.761703752465,7208.692487051454
208,7234.657302263101,7234.657302263101,7235.262865514499,7248.797647002514
209,7281.558216576609,7281.558216576609,7290.088504949694,7309.054725793518
210,7308.612143018112,7308.612143018112,7334.119628517957,7352.418718011527
211,7357.0551840009375,7357.0551840009375,7359.266819053267,7373.202065716516
212,7389.328316184216,7389.328316184216,7394.667334256628,7408.601429142543
213,7424.358173582008,7424.358173582008,7426.754952795817,7442.453271286961
214,7472.331782983352,7472.331782983352,7482.0091258159755,7497.530155381724
215,7515.382346091601,7515.382346091601,7549.0930632502395,7569.733521435928
216,7555.3571545264585,7555.3571545264585,7569.733521435928,7584.94623598164
217,7595.165956983246,7595.165956983246,7600.748247690884,7616.646430451376
218,7612.318669838977,7612.318669838977,7633.040913785054,7646.309468385723
219,7626.76481079572,7633.040913785054,7647.7359623633865,7666.597078323077
220,7681.129996449648,7681.129996449648,7693.713357190717,7712.550898676537
221,7697.626758413723,7697.626758413723,7712.550898676537,7730.977055567611
222,7754.272464570673,7754.272464570673,7784.906450958024,7804.482414435584
223,7791.624962316784,7791.624962316784,7804.482414435584,7821.879153177214
224,7814.731579328472,7814.731579328472,7828.649044087694,7844.60948675539
225,7873.3226531903265,7873.3226531903265,7904.337504511199,7920.57959227072
226,7915.402590341895,7915.402590341895,7926.256838101971,7942.815960551172
227,7936.4623352139615,7936.4623352139615,7942.815960551172,7956.380049682331
228,7984.766378280399,7984.766378280399,7987.705492776931,8000.745442917613
229,8020.235738239019,8020.235738239019,8040.329851152834,8054.193693111358
230,8041.1777189897475,8041.1777189897475,8054.193693111358,8074.869045363199
231,8066.583589551023,8066.583589551023,8074.869045363199,8094.171467416642
232,8122.082322580356,8122.082322580356,8122.717610663605,8143.969253806325
233,8166.791563447996,8166.791563447996,8169.074306160198,8186.113811818524
234,8217.357954251374,8217.357954251374,8235.291324916001,8251.976592202871
235,8241.264726369898,8241.264726369898,8251.976592202871,8267.317494945153
236,8287.084568406759,8287.084568406759,8293.728684964828,8311.435080680845
237,8310.433470971686,8310.433470971686,8312.242519239206,8328.059161090345
238,8335.766917722194,8335.766917722194,8340.518504403994,8357.502467459755
239,8352.257147784772,8352.257147784772,8366.62351087234,8381.989495323985
240,8390.776160406085,8390.776160406085,8396.264678931904,8412.254974091182
241,8426.861902665196,8426.861902665196,8433.641334561129,8450.521895645094
242,8480.610366710845,8480.610366710845,8486.704070024412,8500.37548142486
243,8533.318198736039,8533.318198736039,8546.55446160211,8560.215660137135
244,8574.319984372063,8574.319984372063,8583.057272049107,8605.423619461393
245,8602.872728092654,8602.872728092654,8609.414592145593,8625.187657072684
246,8634.77153271358,8634.77153271358,8638.738787280588,8653.569069319354
247,8683.722660142117,8683.722660142117,8685.90110162397,8703.817386645096
248,8718.24329473513,8718.24329473513,8726.088746496267,8742.718627975632
249,8734.870151814575,8734.870151814575,8742.718627975632,8756.411164807503
250,8783.392121622766,8783.392121622766,8785.713512937244,8800.961506637479
251,8821.618080028886,8821.618080028886,8840.750488147123,8858.02775974798
252,8874.649987560557,8874.649987560557,8892.045515740683,8909.550061536936
253,8891.742878904563,8892.045515740683,8909.550061536936,8920.19066386188
254,8909.368328770845,8909.368328770845,8920.19066386188,8938.644781703402
255,8955.183997774357,8955.183997774357,8970.681905706415,8988.296034928184
256,8974.662981453184,8974.662981453184,8996.92317415793,9011.78075197039
