# file created by code in harbour_fns_1896438.jl
# file created on 2026-03-09 at 15:39:38
# parameter: seed = 1896496
# parameter: T = 30000.0
# parameter: lower_interarrival = 11.0
# parameter: upper_interarrival = 59.0
# parameter: mean_process_times = [11.0, 16.0]
# parameter: max_queue = [9223372036854775807, 4]
# parameter: time_units = hours
id,arrival_time,start_service_times,start_service_times,completion_time
1,0.0,0.0,8.967770703676834,22.392508719668328
2,45.904787336395145,45.904787336395145,61.26150984500023,79.31977884157634
3,71.27484256271578,71.27484256271578,79.31977884157634,96.25752675758635
4,117.5750053031712,117.5750053031712,123.28137189079851,141.14572271797294
5,145.09455932888494,145.09455932888494,183.4008787528865,194.18475931033186
6,175.2443269406028,183.4008787528865,194.18475931033186,214.92524528824632
7,218.65289047277992,218.65289047277992,219.61317283566126,236.04249441852102
8,257.16778618039075,257.16778618039075,265.5182756419356,283.28329919860636
9,305.51600829635237,305.51600829635237,305.97609087183343,322.66036854045814
10,355.1333778575854,355.1333778575854,363.5397629847548,380.9608385026956
11,368.53959828972415,368.53959828972415,380.9608385026956,395.73527630071595
12,417.65599489484003,417.65599489484003,444.8991901881833,460.0045893976891
13,475.45297667048754,475.45297667048754,490.21464405622555,509.8407078782713
14,496.36639612320147,496.36639612320147,509.8407078782713,529.0924157065608
15,545.3327881822341,545.3327881822341,551.9845148723474,568.4506978614271
16,575.9022525089412,575.9022525089412,587.8185032835001,604.7994306263089
17,631.6442750077542,631.6442750077542,664.694160566517,676.3293937886933
18,664.9543467993778,664.9543467993778,676.3293937886933,691.6325709430292
19,692.7830715008083,692.7830715008083,693.8424948506149,706.8828010119173
20,733.8282616834506,733.8282616834506,737.9610763900613,754.5895874020321
21,781.3762688593371,781.3762688593371,788.0687705827561,806.3130427373071
22,814.2986831839421,814.2986831839421,817.9974666164406,828.8106487941959
23,865.9074430217106,865.9074430217106,948.4537039742554,962.6806870130242
24,892.699327604503,948.4537039742554,962.6806870130242,977.2792603227425
25,928.5064027373511,950.5631455201432,986.1316615100322,996.956089011023
26,970.5159832530265,986.1316615100322,996.956089011023,1014.2586755073593
27,984.493477094696,995.1400642189388,1014.2586755073593,1035.2826210835537
28,1001.5834625208572,1006.2143655315483,1035.2826210835537,1047.05202902732
29,1046.6123772729925,1046.6123772729925,1048.139863624938,1067.4934847698871
30,1075.2331279544412,1075.2331279544412,1090.6202953407128,1103.9796198096735
31,1110.0140059600444,1110.0140059600444,1115.1552489714259,1130.2217920237981
32,1165.2063504341127,1165.2063504341127,1173.7463900430719,1192.0830419199049
33,1200.81880053773,1200.81880053773,1225.8477221771673,1242.2604235554388
34,1234.0170139354163,1234.0170139354163,1243.0455793789683,1256.7525507976904
35,1245.2739853060198,1245.2739853060198,1256.7525507976904,1271.854199617888
36,1257.9365920226,1257.9365920226,1271.854199617888,1287.7644601327693
37,1290.609089824443,1290.609089824443,1307.8255348015957,1326.7440182183186
38,1323.857286550378,1323.857286550378,1333.157185245822,1351.0395913877949
39,1382.5009514551518,1382.5009514551518,1385.6138315841285,1399.6508649271716
40,1417.0094050931896,1417.0094050931896,1431.5573135513318,1451.1046409851917
41,1453.5410363637977,1453.5410363637977,1471.735510084955,1486.9365543124013
42,1512.3544381893118,1512.3544381893118,1519.071728578147,1535.6427559061747
43,1524.5741428605636,1524.5741428605636,1550.2220783703533,1567.6644022991804
44,1581.0167730914468,1581.0167730914468,1596.7030101254475,1609.0149620537072
45,1594.7898838328476,1596.7030101254475,1613.026584512491,1626.6455824920931
46,1610.751501800451,1613.026584512491,1631.983331419187,1645.6545435881696
47,1660.9788940788546,1660.9788940788546,1663.618210145334,1680.7687467275857
48,1697.4217963155706,1697.4217963155706,1701.8522538519503,1716.1615942957121
49,1718.325902990112,1718.325902990112,1719.9114604321926,1740.4829203898182
50,1746.0067242394086,1746.0067242394086,1750.8304571893102,1771.6933187988418
51,1781.2517496131813,1781.2517496131813,1802.309239198354,1818.1873999314234
52,1809.4691980332052,1809.4691980332052,1818.1873999314234,1829.377679025401
53,1837.956761410162,1837.956761410162,1846.364656226946,1862.9001962784623
54,1854.9918168883626,1854.9918168883626,1873.9721265273026,1890.59447763156
55,1876.2681424457576,1876.2681424457576,1893.992796404508,1905.5839364001408
56,1928.181098962304,1928.181098962304,1946.2725913798547,1966.1063690563856
57,1950.782612499687,1950.782612499687,1966.1063690563856,1984.8334974716954
58,2005.6075644043192,2005.6075644043192,2008.023605756306,2026.5719964802886
59,2045.6105869997266,2045.6105869997266,2052.5712880200986,2066.7965763186776
60,2083.921317949772,2083.921317949772,2102.2739642118026,2116.2813489586792
61,2103.597652252287,2103.597652252287,2116.2813489586792,2134.9571169547244
62,2132.3411478304397,2132.3411478304397,2145.5456609726493,2165.4923897617864
63,2154.349238960569,2154.349238960569,2166.8823276647336,2179.6570181577185
64,2176.677761390395,2176.677761390395,2188.2384739623258,2199.6574019421414
65,2201.8004575005452,2201.8004575005452,2207.4601001466403,2227.8259143889895
66,2224.740739906791,2224.740739906791,2227.8259143889895,2241.922323808044
67,2279.1010821112545,2279.1010821112545,2289.8528824064024,2308.2466895482203
68,2316.333559873766,2316.333559873766,2316.573840542342,2333.410858523771
69,2372.366216565765,2372.366216565765,2375.480925948326,2394.410642179825
70,2429.6911911467637,2429.6911911467637,2440.2566080464644,2452.4764517306035
71,2463.695116624573,2463.695116624573,2464.0426328094795,2475.53633037653
72,2489.91021092806,2489.91021092806,2498.6845113131926,2514.490261870157
73,2516.734997963408,2516.734997963408,2531.5106768963497,2546.6116632983994
74,2566.7284639759055,2566.7284639759055,2582.226660729709,2594.2497737046638
75,2584.0571496575158,2584.0571496575158,2602.1163630093447,2619.7390977367068
76,2599.378704750004,2602.1163630093447,2619.7390977367068,2634.5662037842358
77,2622.065338786332,2622.065338786332,2634.5662037842358,2648.845319893331
78,2653.338122240951,2653.338122240951,2679.8216307974135,2698.0317846163834
79,2675.935095181479,2679.8216307974135,2698.0317846163834,2719.1294822490054
80,2686.980066568845,2692.816088720562,2719.1294822490054,2732.3503304640176
81,2702.279682818363,2702.279682818363,2732.3503304640176,2747.5714254245127
82,2735.9210599764847,2735.9210599764847,2749.6444759818423,2765.7671291877746
83,2788.23057540007,2788.23057540007,2793.9388493514584,2809.797900018586
84,2831.375670968781,2831.375670968781,2832.58777036334,2843.140148706966
85,2885.7753719680063,2885.7753719680063,2887.2864451439837,2902.755857904671
86,2941.9862813453065,2941.9862813453065,2949.360989761413,2966.9466376836267
87,2995.7505821382897,2995.7505821382897,3008.511016183077,3024.1163166643205
88,3052.33615638774,3052.33615638774,3084.0721855376587,3106.0258580449545
89,3082.924944473099,3084.0721855376587,3106.0258580449545,3118.748453888882
90,3140.760588645304,3140.760588645304,3156.6935377638183,3172.900807699011
91,3171.4773713167797,3171.4773713167797,3176.436382541653,3192.2734874435478
92,3185.3605720998285,3185.3605720998285,3192.2734874435478,3202.6119848872536
93,3202.100200534491,3202.100200534491,3210.153589293436,3217.7135360399047
94,3243.0505514400406,3243.0505514400406,3257.674357618317,3266.255248606102
95,3267.848172491536,3267.848172491536,3282.8269315996795,3300.235008440787
96,3290.3198980633006,3290.3198980633006,3305.752143416606,3326.1008026293134
97,3335.873214767699,3335.873214767699,3355.693195954812,3377.432984540459
98,3346.9531783755724,3355.693195954812,3377.432984540459,3395.0768923808087
99,3389.608659614775,3389.608659614775,3395.0768923808087,3415.592042650134
100,3406.664541805227,3406.664541805227,3415.592042650134,3435.741630558515
101,3443.700819834543,3443.700819834543,3464.680796678758,3475.299363685038
102,3467.431337863229,3467.431337863229,3475.299363685038,3492.108518169968
103,3522.20233885312,3522.20233885312,3523.8838120598184,3542.947188587356
104,3538.5447642044624,3538.5447642044624,3545.6035748941194,3560.909490830082
105,3593.562283003871,3593.562283003871,3599.939999213543,3621.2308469293894
106,3624.68067333872,3624.68067333872,3659.2889534780084,3680.2205025903377
107,3642.616963588233,3659.2889534780084,3680.2205025903377,3695.652967968525
108,3675.8864345609736,3675.8864345609736,3695.652967968525,3713.7242921569004
109,3713.7834284801233,3713.7834284801233,3745.693125318473,3767.6787015540426
110,3730.647779129517,3745.693125318473,3768.1984979624685,3783.5354141653906
111,3783.846796359416,3783.846796359416,3809.3792941897923,3826.20824692279
112,3840.054473623146,3840.054473623146,3851.5638139992625,3867.1174426318134
113,3861.3712192472058,3861.3712192472058,3874.043686439182,3890.9570422033157
114,3903.817291938,3903.817291938,3907.750147695131,3920.762655023275
115,3917.3008496665043,3917.3008496665043,3922.361860712573,3936.528991385507
116,3938.7388064071597,3938.7388064071597,3940.596607783402,3954.7012288582628
117,3997.1519540146187,3997.1519540146187,4008.842818062569,4025.56357623746
118,4047.3499506202343,4047.3499506202343,4052.7164327453274,4075.1038659739456
119,4084.6632324834723,4084.6632324834723,4120.612005655524,4133.398829202571
120,4109.632953636445,4120.612005655524,4133.398829202571,4153.406875201007
121,4149.77337587125,4149.77337587125,4174.887310316522,4195.920352568425
122,4176.509625928324,4176.509625928324,4195.920352568425,4209.097786929664
123,4222.057586378187,4222.057586378187,4226.296199104578,4244.171168465934
124,4254.533945653987,4254.533945653987,4256.898407802108,4273.726246706876
125,4299.826451642584,4299.826451642584,4315.270759759939,4331.779924019062
126,4322.260154091458,4322.260154091458,4342.6424295593115,4361.863394112688
127,4360.986193698018,4360.986193698018,4371.027033776722,4386.257250553873
128,4393.8046721998135,4393.8046721998135,4403.7710962528945,4423.284698679062
129,4440.729246503978,4440.729246503978,4453.887837460842,4465.966880200903
130,4459.662920629052,4459.662920629052,4484.558816716085,4501.985375051642
131,4507.235481180602,4507.235481180602,4513.166644145343,4531.288033554919
132,4554.252056428053,4554.252056428053,4572.932226268835,4585.073821555577
133,4575.634781615866,4575.634781615866,4585.073821555577,4595.913995458736
134,4595.208667296458,4595.208667296458,4607.8307199692945,4623.919991260916
135,4617.521287580485,4617.521287580485,4629.036220113053,4645.454218427411
136,4633.120341145862,4633.120341145862,4645.454218427411,4660.11078108319
137,4658.243631964785,4658.243631964785,4664.548592689675,4686.037306971519
138,4684.522913181438,4684.522913181438,4700.770462439414,4715.520160297695
139,4717.307536757122,4717.307536757122,4720.072825851036,4736.211647822291
140,4729.625294688754,4729.625294688754,4768.357894806398,4782.984042814384
141,4788.422714952994,4788.422714952994,4796.309381872758,4814.366053277341
142,4814.345869559219,4814.345869559219,4816.113195264402,4826.655317832848
143,4846.787026572008,4846.787026572008,4884.0550073219165,4898.893605195943
144,4865.033592920226,4884.0550073219165,4898.893605195943,4915.089183664781
145,4905.277212368779,4905.277212368779,4915.089183664781,4928.805550389329
146,4931.438049038501,4931.438049038501,4940.885940798544,4958.955942495822
147,4988.2032667904205,4988.2032667904205,4996.495070567599,5016.748210188552
148,5015.076465029367,5015.076465029367,5027.980331428473,5044.763648046263
149,5028.108146312785,5028.108146312785,5044.763648046263,5060.027775990911
150,5052.709219410409,5052.709219410409,5060.027775990911,5076.023738457055
151,5085.2304170592115,5085.2304170592115,5085.241860346521,5103.594038252802
152,5114.1824074492815,5114.1824074492815,5126.431233080962,5140.456851962245
153,5153.676721001428,5153.676721001428,5153.812011543076,5168.895463090572
154,5201.757256997009,5201.757256997009,5212.381128815321,5228.7883695431665
155,5256.163199879228,5256.163199879228,5272.13583409561,5290.100712732442
156,5308.176069049874,5308.176069049874,5327.823353631372,5344.254900702689
157,5361.140878034211,5361.140878034211,5364.083066083255,5380.480378437839
158,5409.386323963989,5409.386323963989,5420.305719927444,5438.190239278132
159,5435.013684976095,5435.013684976095,5438.190239278132,5453.453352832056
160,5453.058476337078,5453.058476337078,5473.188497957291,5484.058623984836
161,5483.272758795883,5483.272758795883,5484.058623984836,5495.932688705189
162,5528.737801800749,5528.737801800749,5552.372620325547,5566.123457442502
163,5570.4987518294165,5570.4987518294165,5587.609511507597,5604.9204052278465
164,5588.531040600191,5588.531040600191,5604.9204052278465,5617.266297743226
165,5621.767826366343,5621.767826366343,5624.4761180060605,5638.11729579981
166,5640.905887148457,5640.905887148457,5645.770565577094,5660.169053494339
167,5688.409155737309,5688.409155737309,5708.928045246582,5726.164366637457
168,5715.723421236605,5715.723421236605,5740.363360172142,5753.964548530233
169,5750.594680103714,5750.594680103714,5753.964548530233,5770.651800965402
170,5765.884927876084,5765.884927876084,5770.651800965402,5787.76921421531
171,5799.135211846039,5799.135211846039,5834.411832587257,5848.9677696668095
172,5831.623862142672,5834.411832587257,5857.768287840226,5873.629270103431
173,5852.967566957751,5857.768287840226,5887.443153698792,5905.417259237278
174,5887.722421222835,5887.722421222835,5905.417259237278,5917.365154499205
175,5927.510935841571,5927.510935841571,5927.999160276029,5943.554079094016
176,5972.099944086304,5972.099944086304,5972.762874886828,5991.253880589625
177,5990.338830861761,5990.338830861761,5991.893760343933,6009.450276252148
178,6010.849960204704,6010.849960204704,6016.378711205178,6033.547548872674
179,6050.471084430281,6050.471084430281,6068.975327657964,6083.210509161005
180,6102.339691790166,6102.339691790166,6125.347575902557,6141.8470739242375
181,6158.320111684489,6158.320111684489,6206.717985446864,6222.472786312312
182,6194.936723679077,6206.717985446864,6225.317060043428,6239.825271194055
183,6249.323407172104,6249.323407172104,6285.541892471169,6299.257631156213
184,6282.485592121206,6285.541892471169,6299.257631156213,6316.6863895003125
185,6322.43690483246,6322.43690483246,6329.2366583344,6345.871178748091
186,6376.364311745311,6376.364311745311,6392.488990508742,6408.030068095513
187,6415.77534765206,6415.77534765206,6426.445493474231,6437.507911098638
188,6437.285609127627,6437.285609127627,6437.507911098638,6452.278332547696
189,6461.861666295537,6461.861666295537,6475.497666960086,6488.293054362674
190,6486.5554702305335,6486.5554702305335,6503.009311634708,6521.059970792129
191,6522.845142385611,6522.845142385611,6535.689039417918,6547.108570292765
192,6574.690868156159,6574.690868156159,6578.778949255414,6594.736083981208
193,6592.8099712288185,6592.8099712288185,6614.614114269392,6636.502341451823
194,6628.006157498459,6628.006157498459,6644.715420634382,6664.078056639371
195,6645.227170349384,6645.227170349384,6667.325096204812,6679.610666988311
196,6677.473225180579,6677.473225180579,6685.8501723585105,6702.364277514642
197,6694.628839533985,6694.628839533985,6707.949085967179,6723.718739768356
198,6742.076331489285,6742.076331489285,6762.35455966203,6774.286233923504
199,6792.085118987631,6792.085118987631,6796.113619226008,6813.701188995095
200,6809.169798019097,6809.169798019097,6813.701188995095,6827.616361580628
201,6833.797000461582,6833.797000461582,6845.155249660083,6857.855359733327
202,6857.808626952856,6857.808626952856,6873.7889132886885,6890.127349394333
203,6894.670976642639,6894.670976642639,6898.775677576623,6910.7426064009305
204,6918.838706984966,6918.838706984966,6958.93645791358,6978.462049049702
205,6970.824699590579,6970.824699590579,6998.139546252805,7017.176320284876
206,7014.277270331607,7014.277270331607,7017.176320284876,7033.216877254994
207,7032.666929625815,7032.666929625815,7035.2656524608565,7054.102504055061
208,7087.125524465904,7087.125524465904,7109.362529111375,7128.326260627197
209,7114.271522859219,7114.271522859219,7128.326260627197,7140.242081176698
210,7157.750144106066,7157.750144106066,7160.575677568662,7179.212792886929
211,7187.95561759365,7187.95561759365,7198.496240245205,7211.36882490313
212,7225.3265116545435,7225.3265116545435,7233.583738665476,7255.104971002856
213,7281.960986117161,7281.960986117161,7285.840976046827,7299.5876022496495
214,7319.557853227936,7319.557853227936,7341.338403378414,7359.536467094473
215,7358.899415972875,7358.899415972875,7360.7926799414545,7371.73964410763
216,7381.982345974785,7381.982345974785,7399.417346642001,7420.127117940516
217,7425.795873478811,7425.795873478811,7428.610546333872,7448.079011061769
218,7472.94129955392,7472.94129955392,7478.731828431353,7495.514809419569
219,7514.332436460512,7514.332436460512,7515.566133979262,7532.55952055969
220,7558.25732698471,7558.25732698471,7586.528451860703,7601.116161912363
221,7598.041723601662,7598.041723601662,7602.017278058192,7617.664414133669
222,7620.291405119912,7620.291405119912,7620.825962231716,7635.81448598295
223,7657.440438497866,7657.440438497866,7664.142921916974,7676.987212191245
224,7698.001471977307,7698.001471977307,7699.18884794403,7712.176933659511
225,7747.362806305857,7747.362806305857,7755.1142633803,7770.253786088246
226,7765.877105580561,7765.877105580561,7792.692149105473,7809.772705447243
227,7794.115136556022,7794.115136556022,7809.772705447243,7824.322929643199
228,7837.769086547582,7837.769086547582,7845.3372510687295,7863.582478465738
229,7885.824980246843,7885.824980246843,7888.962217112023,7903.635166729618
230,7897.790037925062,7897.790037925062,7906.981766130603,7924.436440667949
231,7952.156066218618,7952.156066218618,7981.928838780328,7999.386164329521
232,8000.321918653742,8000.321918653742,8005.432391153595,8022.377834526869
233,8056.303010817753,8056.303010817753,8058.5781864934515,8075.952527161348
234,8100.308449650364,8100.308449650364,8117.679922235573,8133.687200354836
235,8121.082840664266,8121.082840664266,8134.215528265476,8149.794429362359
236,8146.403983271455,8146.403983271455,8154.019702785175,8167.297985755844
237,8185.346114703715,8185.346114703715,8203.833209685476,8218.702826764944
238,8198.471422892331,8203.833209685476,8230.11090819259,8245.617573719997
239,8242.543334460073,8242.543334460073,8248.288481613947,8264.409235161627
240,8285.88334563058,8285.88334563058,8297.405354496428,8315.343570177247
241,8302.550384518509,8302.550384518509,8317.199571550107,8334.482751661355
242,8322.916737931571,8322.916737931571,8337.581224267211,8349.103486544169
243,8373.322936754692,8373.322936754692,8376.891065299633,8396.400081183756
244,8420.25517451703,8420.25517451703,8424.156576716598,8444.857328447473
245,8441.359955236181,8441.359955236181,8445.161255303497,8465.070165294988
246,8465.083300899432,8465.083300899432,8471.186859172949,8488.00265173864
247,8483.440812358609,8483.440812358609,8499.19000783696,8515.986094116193
248,8519.447709836073,8519.447709836073,8527.925397734605,8544.208696623162
249,8563.691872826343,8563.691872826343,8565.56543437641,8584.60731338482
250,8616.69590087393,8616.69590087393,8620.457319997306,8634.483147870991
251,8673.371099417924,8673.371099417924,8697.781854342404,8711.336476100449
252,8700.78155856657,8700.78155856657,8711.336476100449,8729.655347208416
253,8751.49583794603,8751.49583794603,8783.159694617287,8802.421193316792
254,8794.011134818169,8794.011134818169,8827.323150056956,8846.600350737137
255,8805.625571462093,8827.323150056956,8846.600350737137,8858.402185298377
256,8857.374419044909,8857.374419044909,8864.328329718035,8879.703616359357
