# file created by code in harbour_fns_1896438.jl
# file created on 2026-03-09 at 15:39:41
# parameter: seed = 1896539
# parameter: T = 30000.0
# parameter: lower_interarrival = 11.0
# parameter: upper_interarrival = 59.0
# parameter: mean_process_times = [11.0, 16.0]
# parameter: max_queue = [9223372036854775807, 4]
# parameter: time_units = hours
id,arrival_time,start_service_times,start_service_times,completion_time
1,0.0,0.0,6.3790043611607805,19.18368014498087
2,35.13261502068323,35.13261502068323,53.26834296085825,60.870929172012254
3,54.5831285617831,54.5831285617831,60.870929172012254,81.27160314468361
4,103.53926979046554,103.53926979046554,155.8937771562144,171.96773536104368
5,139.5761072913223,155.8937771562144,171.96773536104368,188.32101428941297
6,172.79654211787397,172.79654211787397,188.32101428941297,199.2194336144644
7,206.13432895157726,206.13432895157726,221.19921799633315,234.89886234507162
8,235.5492295315123,235.5492295315123,243.31124867439829,253.69285093103005
9,286.8361642867181,286.8361642867181,287.3132155777366,299.91140180648773
10,311.30144202135045,311.30144202135045,312.2229580925542,324.3101442684264
11,346.8994541446801,346.8994541446801,350.0678369710039,364.6627593733481
12,368.78624122889767,368.78624122889767,399.57634664628534,421.7041447667741
13,393.61961057722124,399.57634664628534,421.7041447667741,431.467382266894
14,416.04775693664783,416.04775693664783,431.467382266894,446.9239504157253
15,473.6964453009247,473.6964453009247,513.7138608684168,528.6581557419007
16,517.5812394582854,517.5812394582854,534.1651017864459,549.3253100564777
17,529.7296269076776,534.1651017864459,549.3253100564777,562.0603636457724
18,584.7505319821926,584.7505319821926,590.6590182623385,601.6887742608396
19,610.1886833110966,610.1886833110966,622.4461490233492,647.1990957171781
20,652.4413240597087,652.4413240597087,655.809813393823,671.2852843938766
21,676.1566229503678,676.1566229503678,681.3115141431214,690.8875846589451
22,719.0831485224056,719.0831485224056,732.2503329387072,745.0988560086485
23,759.8517195350348,759.8517195350348,763.2357286917021,780.1956203111827
24,783.4354568996512,783.4354568996512,792.0431400440173,810.1546724933148
25,838.5424971050567,838.5424971050567,868.5049163903819,885.890280448952
26,892.9576843631048,892.9576843631048,910.0229383097893,925.2755212289562
27,943.0399263771585,943.0399263771585,971.1170781610995,985.5830709004003
28,1001.590325214993,1001.590325214993,1003.4367994916388,1023.0146494947004
29,1050.9597002459404,1050.9597002459404,1062.2690645505115,1079.0514935857018
30,1103.5452324202383,1103.5452324202383,1106.8091773867,1129.0654570010238
31,1127.9107149850554,1127.9107149850554,1129.0654570010238,1142.9340504135364
32,1155.4282705552384,1155.4282705552384,1198.4767421739157,1213.5776639947255
33,1185.334489094212,1198.4767421739157,1213.5776639947255,1228.9059389459883
34,1201.0937599592735,1201.0937599592735,1228.9059389459883,1245.2659991172936
35,1250.3041528362014,1250.3041528362014,1261.5076739477852,1278.036678116017
36,1271.3137391231635,1271.3137391231635,1293.9333618903074,1310.3329854622775
37,1327.2986859265966,1327.2986859265966,1335.6371514702766,1349.249559559774
38,1384.9988938954116,1384.9988938954116,1439.771527771017,1455.9878732334053
39,1420.209052090734,1439.771527771017,1455.9878732334053,1470.56248915357
40,1451.0211587349895,1451.0211587349895,1470.56248915357,1484.6600984395857
41,1472.001061784715,1472.001061784715,1484.6600984395857,1503.5464464383501
42,1516.9283330487128,1516.9283330487128,1548.693576166175,1566.552096608107
43,1563.3831641869406,1563.3831641869406,1567.1135514993916,1580.0543423247643
44,1581.4091126742323,1581.4091126742323,1591.6086067277456,1608.995944827884
45,1635.506046657221,1635.506046657221,1638.9573098674127,1654.0299843698112
46,1680.7145036398665,1680.7145036398665,1682.8472052847972,1699.5570840684622
47,1714.7213725876913,1714.7213725876913,1735.4546463081583,1748.1072928260262
48,1735.0097199760644,1735.4546463081583,1748.1072928260262,1761.3138529001421
49,1785.7950238353023,1785.7950238353023,1814.8522561651155,1827.3240315212086
50,1837.5545871726022,1837.5545871726022,1844.9852578710343,1859.0223514948334
51,1860.2230266402667,1860.2230266402667,1877.682643997161,1898.2827767692725
52,1900.0420147978623,1900.0420147978623,1900.6343671401273,1919.8628160572505
53,1950.7115298200192,1950.7115298200192,1982.266395958306,2003.4481737743022
54,1988.3101642677464,1988.3101642677464,2006.8935757572642,2025.0898670874062
55,2033.2965491104928,2033.2965491104928,2073.390234006217,2089.2021917187117
56,2081.7762158545597,2081.7762158545597,2092.032582555157,2109.9720402167395
57,2131.7691437035764,2131.7691437035764,2160.586940716004,2177.6232187378328
58,2184.253279134475,2184.253279134475,2186.545275801583,2198.5716589823905
59,2229.0417797832515,2229.0417797832515,2243.007903703718,2261.7012985139168
60,2244.9749642718375,2244.9749642718375,2269.0595172256717,2285.222068994363
61,2286.361446285404,2286.361446285404,2289.303226617021,2302.913800422224
62,2328.00779231913,2328.00779231913,2339.067770788324,2356.0524206644204
63,2344.7151107629848,2344.7151107629848,2356.0524206644204,2379.3310068085834
64,2397.5285609554185,2397.5285609554185,2399.5637654572856,2416.342253895306
65,2435.149968003616,2435.149968003616,2440.4669709908053,2456.1460667389692
66,2475.0856962711027,2475.0856962711027,2502.286942344156,2516.932354221596
67,2510.7214652608473,2510.7214652608473,2516.932354221596,2529.0704170168956
68,2522.803083162433,2522.803083162433,2529.0704170168956,2544.8071195882535
69,2534.650611055777,2534.650611055777,2544.8071195882535,2562.297116577145
70,2574.8953132436213,2574.8953132436213,2577.9000533833455,2590.7499383999816
71,2595.175312279541,2595.175312279541,2603.412822611712,2619.446814946177
72,2628.279870096868,2628.279870096868,2628.5177382337693,2647.242383645024
73,2685.7362924410477,2685.7362924410477,2723.9303279246215,2740.1571321117485
74,2733.669190516172,2733.669190516172,2742.9303391859603,2763.5744964972637
75,2769.8154428201,2769.8154428201,2773.943672681564,2795.284296587215
76,2794.6259479260316,2794.6259479260316,2805.6619854654637,2819.64391093932
77,2817.3784216385548,2817.3784216385548,2819.64391093932,2839.6924538121134
78,2868.4173504886785,2868.4173504886785,2871.8226879883887,2886.6197221615103
79,2899.3503864792615,2899.3503864792615,2903.1076343131244,2921.2116237289433
80,2957.861282890688,2957.861282890688,2976.376907733626,2993.9049592966994
81,2978.910971738882,2978.910971738882,2993.9049592966994,3012.465714170575
82,3005.208676468279,3005.208676468279,3012.465714170575,3024.6462488975217
83,3054.308015556551,3054.308015556551,3072.6368126608654,3084.140060104779
84,3079.042408140439,3079.042408140439,3085.3115440649203,3105.879461831011
85,3116.6319650648907,3116.6319650648907,3117.900936925682,3134.5917408930004
86,3157.1120564830744,3157.1120564830744,3177.350723754634,3193.332952515548
87,3208.606168842898,3208.606168842898,3229.3119043177735,3241.368611966586
88,3257.1527059640707,3257.1527059640707,3262.0966895109013,3280.2579642738547
89,3278.305541547669,3278.305541547669,3292.827579353186,3305.7328982974277
90,3325.9164438991797,3325.9164438991797,3331.836281743982,3352.7780803709147
91,3358.318809810037,3358.318809810037,3359.4401006707503,3377.1488511317602
92,3384.465425441142,3384.465425441142,3389.495671916782,3400.0263304994937
93,3434.860339868979,3434.860339868979,3439.9953185353006,3457.893135981568
94,3462.3705631570324,3462.3705631570324,3491.4895405518982,3509.5193309558135
95,3499.247277396105,3499.247277396105,3516.0206038993265,3535.609882209468
96,3556.714247485896,3556.714247485896,3560.9935436552355,3579.0394928780734
97,3615.617789020542,3615.617789020542,3630.7569366640246,3650.7287443830955
98,3666.1828690412744,3666.1828690412744,3693.0327175326834,3707.1066447298545
99,3700.958974990101,3700.958974990101,3707.1066447298545,3719.1622048422496
100,3734.695553885377,3734.695553885377,3742.7413454197635,3760.0389486774957
101,3768.7520859337446,3768.7520859337446,3771.588945079406,3788.7782779961544
102,3804.2225981148226,3804.2225981148226,3812.6387256661355,3828.103802118094
103,3822.090033459455,3822.090033459455,3845.225420982849,3861.7811651709058
104,3835.1532254778244,3845.225420982849,3861.7811651709058,3881.283530543882
105,3857.387433051583,3857.387433051583,3881.283530543882,3898.090636747097
106,3907.982572509487,3907.982572509487,3925.799394442717,3938.0426759011484
107,3957.4683744334166,3957.4683744334166,3973.444259834755,3991.4300746142203
108,4006.1825007246694,4006.1825007246694,4023.342185108979,4043.929427187578
109,4017.6775069816886,4023.342185108979,4043.929427187578,4056.229179878266
110,4063.786958272423,4063.786958272423,4064.1960102361577,4080.3653711959923
111,4078.6344016913604,4078.6344016913604,4091.8350961392525,4106.975389956069
112,4122.991791664207,4122.991791664207,4127.10137471303,4139.6668804814835
113,4148.487973048113,4148.487973048113,4186.273682629323,4204.012648590091
114,4184.926532653616,4186.273682629323,4204.012648590091,4222.09999480494
115,4218.217483111781,4218.217483111781,4222.451619647037,4239.326890452759
116,4242.131085867317,4242.131085867317,4279.368421047466,4300.18578607378
117,4257.454156313584,4279.368421047466,4300.18578607378,4315.8879337086
118,4309.69876594771,4309.69876594771,4328.231049625953,4341.697448071107
119,4322.988780094911,4328.231049625953,4341.697448071107,4365.254713517486
120,4360.691777845928,4360.691777845928,4365.254713517486,4383.576023555201
121,4374.5841362988685,4374.5841362988685,4389.308040660518,4405.776535488089
122,4387.377563368922,4389.308040660518,4405.776535488089,4422.215403573296
123,4415.5178846775325,4415.5178846775325,4422.215403573296,4435.062811143976
124,4432.387770170284,4432.387770170284,4436.631781063509,4448.989464247403
125,4476.3077983952535,4476.3077983952535,4512.521714092213,4536.427841261802
126,4517.734090586245,4517.734090586245,4563.280733100058,4577.864591695095
127,4544.992397978862,4563.280733100058,4577.864591695095,4586.549224685197
128,4567.045662964234,4570.251756239949,4586.549224685197,4602.551308474899
129,4614.22200481467,4614.22200481467,4619.302558816266,4632.1908092454205
130,4640.985371218414,4640.985371218414,4642.242983827812,4655.062316669701
131,4686.326969882516,4686.326969882516,4696.70902268253,4708.819831055295
132,4730.460868191599,4730.460868191599,4737.6644219852915,4749.558986475512
133,4777.916569585938,4777.916569585938,4778.170559757121,4795.629900697623
134,4823.341819161314,4823.341819161314,4831.475089178669,4845.195884450259
135,4835.819208297423,4835.819208297423,4845.195884450259,4862.164172220785
136,4850.043433969351,4850.043433969351,4862.164172220785,4883.958714719147
137,4872.8063461240135,4872.8063461240135,4883.958714719147,4901.182179782144
138,4887.749687444439,4887.749687444439,4916.348366412966,4927.19016707807
139,4939.49191427708,4939.49191427708,4945.786172520524,4963.141250534166
140,4991.073220707512,4991.073220707512,4999.758635592003,5010.948234533263
141,5034.693555839767,5034.693555839767,5036.110088487715,5049.559579958256
142,5070.900680284963,5070.900680284963,5095.382554352976,5108.7966984855175
143,5126.747166307621,5126.747166307621,5126.826118075769,5142.383391677189
144,5174.854227445328,5174.854227445328,5179.860518654212,5200.082542079615
145,5201.595428288471,5201.595428288471,5246.960424922859,5264.035286718035
146,5227.170029001866,5246.960424922859,5264.035286718035,5279.680395694139
147,5281.548714051921,5281.548714051921,5283.172170687192,5302.08670822841
148,5302.700167275812,5302.700167275812,5307.675747472768,5328.936803798258
149,5358.315555849764,5358.315555849764,5372.447215916306,5390.4448434552905
150,5403.74339607163,5403.74339607163,5407.504886784204,5425.585679399571
151,5425.549817439816,5425.549817439816,5445.599079845474,5464.453384659363
152,5464.956231603048,5464.956231603048,5524.399162673174,5533.680851138674
153,5488.455389465619,5524.399162673174,5536.894244482721,5557.965895626712
154,5499.610263386425,5536.894244482721,5557.965895626712,5573.73258024004
155,5516.897883000152,5552.84948293065,5573.73258024004,5589.16627867051
156,5531.438177116665,5557.507968481093,5592.611468746377,5606.792318117307
157,5574.526335433973,5592.611468746377,5606.792318117307,5617.839921914691
158,5599.714167390047,5599.714167390047,5617.839921914691,5635.92381205197
159,5648.807662119896,5648.807662119896,5654.333982726707,5673.2726776730005
160,5701.485179682946,5701.485179682946,5705.491003021389,5719.468918573241
161,5749.984435029087,5749.984435029087,5763.275597778889,5777.072603244807
162,5785.74848673041,5785.74848673041,5791.456922436098,5804.533863416464
163,5819.263598925053,5819.263598925053,5833.801629752445,5846.186917634947
164,5845.854165602789,5845.854165602789,5847.948130425947,5864.952039571835
165,5871.591322214594,5871.591322214594,5875.949500091914,5890.51154248879
166,5903.451805882184,5903.451805882184,5915.7847065733695,5934.57981918683
167,5933.0854431197895,5933.0854431197895,5935.509664799956,5949.633825022794
168,5980.908461120686,5980.908461120686,5993.449104935982,6008.290154530781
169,6024.61997702935,6024.61997702935,6024.745611258317,6039.411130271977
170,6055.463699875929,6055.463699875929,6060.168767030274,6075.750962495311
171,6106.4910808060495,6106.4910808060495,6118.876802873043,6134.824689078824
172,6131.250879903409,6131.250879903409,6134.824689078824,6154.9250887649905
173,6144.7785059375565,6144.7785059375565,6154.9250887649905,6171.3320749065315
174,6182.0206574611075,6182.0206574611075,6203.372252332138,6218.385573420613
175,6231.773400994991,6231.773400994991,6254.328436351256,6272.928353298201
176,6258.296110085046,6258.296110085046,6272.928353298201,6287.866529028058
177,6278.584959823775,6278.584959823775,6298.922598010408,6316.950850033006
178,6334.962710927086,6334.962710927086,6338.334142030411,6351.742832897289
179,6371.261332956573,6371.261332956573,6381.081385738876,6402.458320997353
180,6407.681791661526,6407.681791661526,6411.684156178649,6425.8513238750475
181,6461.206829299714,6461.206829299714,6479.969601458869,6501.599114423341
182,6488.1528534628105,6488.1528534628105,6501.599114423341,6514.558669366234
183,6528.861360865167,6528.861360865167,6542.046448690474,6558.524800471107
184,6569.005104320258,6569.005104320258,6577.152619351687,6590.9092000789915
185,6610.369049992364,6610.369049992364,6611.746829202105,6626.144200994994
186,6647.078704707865,6647.078704707865,6656.757372984777,6676.020597603654
187,6696.203866726361,6696.203866726361,6707.838621630735,6724.3885462299395
188,6736.122346766726,6736.122346766726,6743.546931396571,6761.384160089566
189,6774.777694936222,6774.777694936222,6784.286697568686,6800.227004676007
190,6792.500704760805,6792.500704760805,6811.514713911477,6826.377252585362
191,6843.080731513571,6843.080731513571,6846.971127199909,6862.979010576569
192,6855.37437891445,6855.37437891445,6862.979010576569,6878.6930597431365
193,6871.935114813071,6871.935114813071,6878.6930597431365,6894.786146422549
194,6924.424061582928,6924.424061582928,6927.695261726764,6939.165321192441
195,6954.025879265162,6954.025879265162,6956.827353536493,6976.189889213855
196,6990.610322846614,6990.610322846614,6992.18934378658,7007.823811233742
197,7020.642882938313,7020.642882938313,7022.858910759288,7039.385253748001
198,7046.944344211502,7046.944344211502,7048.003100934983,7059.903016787154
199,7069.553097889439,7069.553097889439,7070.797617882891,7087.6828551269355
200,7086.762848301978,7086.762848301978,7087.6828551269355,7100.526610389494
201,7140.735147110282,7140.735147110282,7186.5971853151605,7203.826354148988
202,7172.30134627965,7186.5971853151605,7234.627401521667,7246.363239811046
203,7185.14513482742,7234.627401521667,7246.363239811046,7258.467971677926
204,7241.756645172272,7241.756645172272,7268.664466788579,7281.869703850028
205,7282.561993884823,7282.561993884823,7285.796102868111,7300.574410820107
206,7299.246443650697,7299.246443650697,7318.178014693762,7338.03780459988
207,7331.104822369984,7331.104822369984,7358.337593096794,7368.986599822908
208,7370.506123073726,7370.506123073726,7370.929764050085,7387.37153720692
209,7411.584808192224,7411.584808192224,7435.491861521668,7462.049486592494
210,7456.388798464553,7456.388798464553,7468.672340445187,7481.6567354317895
211,7485.428655294114,7485.428655294114,7498.865459791867,7514.479417413663
212,7498.837330635527,7498.865459791867,7514.479417413663,7530.035860142944
213,7550.7843190933345,7550.7843190933345,7551.648925239208,7571.802701389752
214,7580.232360015854,7580.232360015854,7587.166582294531,7606.640047346339
215,7598.63433643288,7598.63433643288,7606.640047346339,7623.7164197967395
216,7657.000439916063,7657.000439916063,7661.564692341332,7677.101946019127
217,7694.012899041931,7694.012899041931,7708.994144494074,7722.002506008934
218,7748.7099376868755,7748.7099376868755,7754.247629615354,7772.9451910623475
219,7771.953861755387,7771.953861755387,7789.428217042359,7802.772217910837
220,7785.977751553469,7789.428217042359,7803.01480577597,7820.67860342779
221,7804.9444318976175,7804.9444318976175,7820.67860342779,7831.849706971746
222,7828.705803285081,7828.705803285081,7844.93169050748,7860.27665373076
223,7844.035008227653,7844.93169050748,7860.27665373076,7875.956375735321
224,7858.27004193768,7858.27004193768,7875.956375735321,7894.282221962726
225,7873.299508908233,7873.299508908233,7897.3534966266025,7918.190253977838
226,7931.351618741733,7931.351618741733,7945.312273163364,7963.636330547814
227,7960.9126633340475,7960.9126633340475,7963.636330547814,7983.11838760379
228,8018.978862763441,8018.978862763441,8021.4162684585635,8040.039943367002
229,8060.6960546408845,8060.6960546408845,8065.451864496973,8078.805708876503
230,8101.382469144934,8101.382469144934,8117.415908460517,8129.18575153015
231,8133.396503914889,8133.396503914889,8169.891346159211,8182.955976427634
232,8168.347469405939,8169.891346159211,8182.955976427634,8194.537816826718
233,8179.4194014814175,8179.4194014814175,8194.537816826718,8210.942701849766
234,8234.083411900428,8234.083411900428,8235.636668482333,8256.315065424506
235,8265.849719604974,8265.849719604974,8270.851756940549,8286.641967871286
236,8322.768439487201,8322.768439487201,8325.022735701723,8335.111657142746
237,8356.523937192243,8356.523937192243,8358.801807364696,8375.248693242045
238,8385.65582700411,8385.65582700411,8387.149460847775,8399.783732117596
239,8420.560505343037,8420.560505343037,8440.21565485838,8455.978268699806
240,8449.697006318973,8449.697006318973,8465.284632149196,8482.029821157335
241,8476.558403530018,8476.558403530018,8489.537632719195,8507.20865982736
242,8520.67060333687,8520.67060333687,8522.570753834369,8539.459739718406
243,8572.595428074872,8572.595428074872,8612.276707037101,8629.627008982412
244,8624.189208318903,8624.189208318903,8633.384278513016,8650.679891883283
245,8670.304997671776,8670.304997671776,8674.895309969781,8693.280580960207
246,8709.89003434836,8709.89003434836,8718.54991632775,8736.21584678125
247,8752.678617922022,8752.678617922022,8773.295374189867,8788.269989273056
248,8807.558115096106,8807.558115096106,8840.850412640695,8860.771195216432
249,8819.349480179097,8840.850412640695,8860.771195216432,8873.082418744469
250,8832.287698027349,8840.859157834713,8873.082418744469,8890.097439563955
251,8879.970496556261,8879.970496556261,8890.097439563955,8909.853994526338
252,8907.119717772983,8907.119717772983,8926.690861047588,8939.212920972212
253,8952.872110618657,8952.872110618657,8971.072817334356,8984.230046079887
254,8984.02768397534,8984.02768397534,8997.5871073467,9009.729111508273
255,9028.70239424519,9028.70239424519,9046.21106539257,9062.44583166893
256,9042.85348499363,9046.21106539257,9062.44583166893,9079.330725329355
