# file created by code in harbour_fns_1896438.jl
# file created on 2026-03-09 at 15:39:36
# parameter: seed = 1896465
# parameter: T = 30000.0
# parameter: lower_interarrival = 11.0
# parameter: upper_interarrival = 59.0
# parameter: mean_process_times = [11.0, 16.0]
# parameter: max_queue = [9223372036854775807, 4]
# parameter: time_units = hours
id,arrival_time,start_service_times,start_service_times,completion_time
1,0.0,0.0,28.055526293868013,44.37611746829932
2,41.39170226167583,41.39170226167583,44.37611746829932,57.539727148288364
3,59.86654335408585,59.86654335408585,61.36519036687663,76.7802806658
4,114.29844253326132,114.29844253326132,125.95114950996104,141.11481792468555
5,125.8115762433168,125.95114950996104,141.11481792468555,160.2117747681189
6,145.28321061728064,145.28321061728064,160.2117747681189,174.50319411389674
7,178.47603107325742,178.47603107325742,178.59652733969804,191.59383691401078
8,227.42093550391783,227.42093550391783,227.91339196257488,242.51701352217856
9,254.8141103551544,254.8141103551544,257.1255941931587,274.3316377755032
10,299.87900268352337,299.87900268352337,323.0001508130088,341.8357332799053
11,351.0798562231667,351.0798562231667,359.70299671384896,375.3990636548934
12,385.69854139185225,385.69854139185225,390.03813758362224,411.65976148936227
13,421.2426503392611,421.2426503392611,433.09173760456815,444.8567945948347
14,445.022070814212,445.022070814212,459.1576406370913,474.94151363991665
15,502.20703668216845,502.20703668216845,517.3400866218819,527.8227060817048
16,552.1872040210227,552.1872040210227,567.070605751393,578.7868929222758
17,596.9308247544881,596.9308247544881,606.8719373037177,626.4529008001684
18,631.0679611960994,631.0679611960994,635.4155285625317,652.3752222869409
19,648.4430413929243,648.4430413929243,689.7178684499361,710.2195910005411
20,692.3978160649234,692.3978160649234,710.2195910005411,731.0189511174284
21,716.4295483139152,716.4295483139152,731.0189511174284,748.6048341246001
22,772.5956614733423,772.5956614733423,773.3353986826644,790.7111115331097
23,813.5767730095046,813.5767730095046,856.8706852479818,872.7422336764246
24,859.2442692096898,859.2442692096898,874.1194747027788,892.1031538152774
25,879.3053785475422,879.3053785475422,892.1031538152774,908.1182151952647
26,917.9358286682301,917.9358286682301,925.9391124439034,941.1488401262795
27,966.3884737678592,966.3884737678592,976.7816667497781,992.0206239989059
28,1006.0899796644162,1006.0899796644162,1007.0944610042352,1022.2346607762108
29,1052.5336384477914,1052.5336384477914,1059.2792699566332,1072.829728830936
30,1074.1406940892655,1074.1406940892655,1099.8171300185857,1117.0038605276034
31,1125.001423100022,1125.001423100022,1138.1126895488346,1153.8946079750192
32,1144.3180484985583,1144.3180484985583,1153.8946079750192,1170.8990156463185
33,1201.1815584772248,1201.1815584772248,1217.6524422967443,1235.009068104984
34,1237.0211988826177,1237.0211988826177,1255.7897689353426,1269.932303983468
35,1276.5654341179456,1276.5654341179456,1277.5373878170574,1293.9987168021003
36,1314.0530781137434,1314.0530781137434,1317.3671728972013,1328.975570385927
37,1347.8878015995958,1347.8878015995958,1365.0504746053175,1383.5855597963669
38,1368.9326942222099,1368.9326942222099,1383.5855597963669,1408.3073711238583
39,1393.992253359092,1393.992253359092,1408.3073711238583,1429.0363695727135
40,1447.4045278026094,1447.4045278026094,1458.8673147184513,1477.2457546365008
41,1504.3243547866618,1504.3243547866618,1513.6022932267733,1527.3900203650405
42,1533.7987370331557,1533.7987370331557,1538.3448744206596,1556.3852360162248
43,1555.5960884520498,1555.5960884520498,1561.4589492213347,1572.175304852633
44,1571.1282330998922,1571.1282330998922,1583.0776077673809,1605.3969293863126
45,1582.8159332083533,1583.0776077673809,1605.3969293863126,1623.8029622974102
46,1600.30790474626,1601.1322571204055,1623.8029622974102,1638.114461778655
47,1642.9908085169545,1642.9908085169545,1644.226927776293,1661.0419841372393
48,1660.157089504979,1660.157089504979,1667.433680743838,1682.6712466526421
49,1709.7514958835764,1709.7514958835764,1725.3782104129145,1739.359476456737
50,1751.4181667743258,1751.4181667743258,1751.5402704513808,1764.9098761409123
51,1803.6212916775273,1803.6212916775273,1856.3560292873071,1874.5520989988834
52,1830.9481475017299,1856.3560292873071,1874.5520989988834,1887.0116388716028
53,1845.151793292281,1860.5586123875573,1894.6394741652514,1912.78235822168
54,1865.6532506498147,1894.6394741652514,1912.78235822168,1924.915847312571
55,1906.7464643757526,1906.7464643757526,1924.915847312571,1945.8029125457906
56,1947.3902267777441,1947.3902267777441,1949.1707773635542,1968.8826100407953
57,1984.1434017355834,1984.1434017355834,1993.2212332670729,2009.4408496814842
58,2033.6366535429527,2033.6366535429527,2045.6283370178924,2063.0663007553862
59,2070.8994891178722,2070.8994891178722,2091.812969156598,2107.801319326629
60,2115.4813971396075,2115.4813971396075,2117.870635805056,2131.039693855337
61,2128.2881606486285,2128.2881606486285,2132.113177539628,2146.482138759655
62,2143.057582428932,2143.057582428932,2146.482138759655,2162.0597552991944
63,2160.8012938194597,2160.8012938194597,2176.9471144532313,2194.1291761935513
64,2214.518866962432,2214.518866962432,2220.804070741944,2234.679995933321
65,2268.7450906543213,2268.7450906543213,2299.9559937224108,2316.565205038662
66,2290.6348073733884,2299.9559937224108,2316.565205038662,2333.64882936043
67,2331.7801600161165,2331.7801600161165,2336.4285420781557,2350.2784568293546
68,2366.1603608528276,2366.1603608528276,2378.952116065814,2393.913277274269
69,2418.4660420337427,2418.4660420337427,2423.9722045738818,2437.075170079046
70,2432.86943564994,2432.86943564994,2437.075170079046,2450.624639082105
71,2459.300879384867,2459.300879384867,2463.0194767887974,2476.7456299577525
72,2480.9830005624226,2480.9830005624226,2530.546693981825,2545.7860254383027
73,2508.061006853172,2530.546693981825,2545.7860254383027,2562.81036259315
74,2520.341665581006,2533.1161613136633,2562.81036259315,2574.4747301513335
75,2554.603879362114,2554.603879362114,2605.9513074374163,2618.4897563005475
76,2608.339886016155,2608.339886016155,2618.4897563005475,2630.264019993998
77,2659.6278230449884,2659.6278230449884,2665.7699207469755,2681.082836256535
78,2696.6757374021495,2696.6757374021495,2699.443759782067,2718.6718714033473
79,2740.3699074605415,2740.3699074605415,2758.7044730933785,2771.0801114861183
80,2792.917945464081,2792.917945464081,2797.4681859123466,2812.199434064496
81,2812.4118381915455,2812.4118381915455,2819.8963538154926,2837.8992634620695
82,2845.5951124752314,2845.5951124752314,2847.3169961584745,2864.1406280975443
83,2882.4872935694475,2882.4872935694475,2897.750717667816,2915.6471759431147
84,2902.0572523013843,2902.0572523013843,2915.6471759431147,2936.055306253437
85,2934.6037258410647,2934.6037258410647,2938.8047047418586,2955.0041466978682
86,2963.2744496508244,2963.2744496508244,2986.054452671155,3006.7520175408945
87,2976.2344960234464,2986.054452671155,3012.8550288866345,3025.799479895432
88,3033.4179677503294,3033.4179677503294,3051.579794720012,3059.970195127632
89,3077.9587313587485,3077.9587313587485,3084.8797558886613,3101.013059774986
90,3100.0483059733415,3100.0483059733415,3103.0764176919056,3119.3678037440495
91,3127.6135156151477,3127.6135156151477,3144.5424302703277,3160.2660532168425
92,3169.646512941863,3169.646512941863,3179.0877286929003,3197.406363669905
93,3220.8618422657796,3220.8618422657796,3223.462083375401,3242.4606787292246
94,3265.7869790668597,3265.7869790668597,3272.237181095981,3287.712947602543
95,3288.8749234982015,3288.8749234982015,3295.0242949432536,3315.2298914032867
96,3334.504941414037,3334.504941414037,3416.626453739368,3434.251366396379
97,3371.8018552446006,3416.626453739368,3434.251366396379,3451.0257329133087
98,3428.563727393938,3428.7429622390837,3451.0257329133087,3469.7521396687357
99,3487.091876302225,3487.091876302225,3489.351927093922,3505.56230134267
100,3501.1992670336376,3501.1992670336376,3505.56230134267,3522.0902476551064
101,3528.785163065942,3528.785163065942,3542.5818461984077,3555.87978102659
102,3578.24978114548,3578.24978114548,3594.6380886421884,3608.7507614626716
103,3594.9762252799314,3594.9762252799314,3627.032900121206,3645.6729991001425
104,3622.682014510378,3627.032900121206,3645.6729991001425,3661.857595696383
105,3674.342616730672,3674.342616730672,3686.9268685873953,3705.142387308383
106,3713.5453311660494,3713.5453311660494,3725.4452945891235,3741.7362085958525
107,3738.026271100847,3738.026271100847,3754.3531913612555,3768.470767334185
108,3753.373439166476,3754.3531913612555,3768.470767334185,3780.1279985154997
109,3778.232364361145,3778.232364361145,3792.657002871379,3807.2737570434406
110,3807.690819892389,3807.690819892389,3826.4564119754314,3844.438628679554
111,3855.348911062272,3855.348911062272,3856.70504854047,3878.0011156987534
112,3908.1768651316743,3908.1768651316743,3926.216813697097,3942.6827268998986
113,3919.9283711234953,3926.216813697097,3942.6827268998986,3958.585247609564
114,3938.736246312605,3938.736246312605,3958.585247609564,3977.573776219308
115,3983.543320330072,3983.543320330072,3983.5940733085404,3999.0921419368015
116,4038.2879913180677,4038.2879913180677,4039.143493426081,4049.2593474522155
117,4068.020337523416,4068.020337523416,4087.8375184534098,4100.952210227497
118,4106.68178023044,4106.68178023044,4108.644875231996,4120.088894055442
119,4163.040384131674,4163.040384131674,4168.689409731362,4185.590731759637
120,4191.105694520457,4191.105694520457,4192.524117180353,4204.167850533759
121,4208.263726495421,4208.263726495421,4208.794432088448,4227.701502066783
122,4232.987147484745,4232.987147484745,4245.7786281552235,4265.863443886203
123,4256.518288306948,4256.518288306948,4265.863443886203,4283.001109152078
124,4274.630297513164,4274.630297513164,4301.481884690253,4311.841238140886
125,4289.10393991328,4301.481884690253,4311.841238140886,4321.487324183272
126,4330.8577632035185,4330.8577632035185,4331.667645113215,4345.998734796403
127,4368.937475030146,4368.937475030146,4390.5946044321,4405.295116945711
128,4419.181907494293,4419.181907494293,4424.929719112304,4438.312890707018
129,4446.695698988258,4446.695698988258,4457.552603851441,4477.82237833403
130,4462.2640866791635,4462.2640866791635,4477.82237833403,4491.502392682716
131,4476.633921178028,4476.633921178028,4491.502392682716,4506.727437762481
132,4534.991823742412,4534.991823742412,4548.646003844294,4563.355697799773
133,4556.0359108866105,4556.0359108866105,4563.355697799773,4575.882036831082
134,4587.6043761562205,4587.6043761562205,4590.625426462373,4608.26103414374
135,4611.8383969325605,4611.8383969325605,4632.319056344511,4647.457678457399
136,4654.32413203378,4654.32413203378,4661.168005829933,4678.528549848802
137,4706.2479838756135,4706.2479838756135,4708.944616749129,4723.932311030129
138,4732.855321770611,4732.855321770611,4735.0496231120915,4746.203391214853
139,4786.287043127214,4786.287043127214,4797.513002743314,4815.971208107761
140,4824.983454090636,4824.983454090636,4832.166149433377,4853.6409465835495
141,4871.275253743381,4871.275253743381,4872.170642039253,4885.08400162929
142,4904.777394855621,4904.777394855621,4921.489515626082,4937.954369263252
143,4927.5396093151985,4927.5396093151985,4937.954369263252,4955.431101827231
144,4952.238899070206,4952.238899070206,4957.38173584792,4976.07281498215
145,4999.955371630495,4999.955371630495,5032.4610212731895,5048.66264266784
146,5049.128035642932,5049.128035642932,5056.134576714348,5068.010605605327
147,5066.281207328988,5066.281207328988,5069.483989262374,5084.975331395149
148,5115.242564407591,5115.242564407591,5122.921202818854,5141.4872423745055
149,5134.360112455266,5134.360112455266,5190.684336229812,5207.078489337447
150,5188.842442052301,5190.684336229812,5207.078489337447,5225.741738125099
151,5219.503139829461,5219.503139829461,5225.741738125099,5241.905222808816
152,5260.885492990197,5260.885492990197,5276.142580873788,5296.122428984727
153,5303.519581741654,5303.519581741654,5330.031850141881,5349.666784439775
154,5333.05907561213,5333.05907561213,5349.666784439775,5364.65171587189
155,5357.28814783615,5357.28814783615,5381.265667663671,5396.265853732023
156,5402.436333945717,5402.436333945717,5407.50715292442,5424.030810734292
157,5434.194351929344,5434.194351929344,5438.260076401014,5453.790284925106
158,5476.599325910545,5476.599325910545,5486.801949542927,5502.936571884624
159,5496.336344679367,5496.336344679367,5509.418141483838,5519.645835177456
160,5550.1986287757545,5550.1986287757545,5572.623404991089,5585.459039275703
161,5570.641282527227,5572.623404991089,5585.459039275703,5599.63106578374
162,5608.375699333044,5608.375699333044,5609.013057927661,5627.937295589356
163,5628.632739605247,5628.632739605247,5668.022629468047,5684.65047365993
164,5684.957354251153,5684.957354251153,5693.518188427675,5708.019321120413
165,5731.4279311999635,5731.4279311999635,5744.894127898795,5757.732369782536
166,5759.22146575707,5759.22146575707,5784.102511701988,5803.922176351151
167,5804.930480783459,5804.930480783459,5805.651778557692,5821.208653360609
168,5823.018693009136,5823.018693009136,5823.498172354003,5841.703225940508
169,5860.886523708028,5860.886523708028,5885.117317726335,5899.758189938993
170,5913.906681871647,5913.906681871647,5928.109468660516,5943.669480624891
171,5933.76794363207,5933.76794363207,5944.759542675668,5961.129687395974
172,5973.341146867156,5973.341146867156,5977.71468149607,5994.243315914596
173,5990.7837986598915,5990.7837986598915,5994.243315914596,6008.193206957482
174,6019.105861349995,6019.105861349995,6027.421192341763,6040.78491356978
175,6056.469679459166,6056.469679459166,6057.786989423084,6071.224736388537
176,6079.083424760227,6079.083424760227,6093.7775418920055,6112.1049440619045
177,6114.145926867697,6114.145926867697,6115.254200806895,6129.677170250959
178,6129.731038764781,6129.731038764781,6138.386923847263,6152.972195079571
179,6161.484869138326,6161.484869138326,6173.125920307275,6185.741828940576
180,6202.653192618526,6202.653192618526,6235.828914159665,6253.073860681522
181,6224.068801877545,6235.828914159665,6253.073860681522,6266.651522609505
182,6249.21549919433,6249.21549919433,6266.651522609505,6280.475825945946
183,6286.882016324177,6286.882016324177,6288.83661062136,6304.313306531849
184,6342.058706953761,6342.058706953761,6355.215582436117,6369.462230531773
185,6354.878716153784,6355.215582436117,6369.462230531773,6390.375144452112
186,6368.144138481196,6368.144138481196,6390.375144452112,6410.150852414752
187,6411.412700652995,6411.412700652995,6438.732349869369,6456.2534565212645
188,6466.370727617133,6466.370727617133,6479.378713356239,6489.9654533429
189,6511.660834688234,6511.660834688234,6537.936341028502,6551.717235422383
190,6563.842406458329,6563.842406458329,6566.760377917902,6582.949042907294
191,6598.095556200229,6598.095556200229,6626.719811823625,6645.171584306215
192,6647.959322872022,6647.959322872022,6648.4412105042575,6667.296999811212
193,6661.416941349829,6661.416941349829,6667.296999811212,6685.515378487926
194,6678.345558977342,6678.345558977342,6704.313221812359,6724.363635047949
195,6706.495463446404,6706.495463446404,6724.363635047949,6735.705276408831
196,6760.445841337006,6760.445841337006,6761.842823778111,6776.517142977523
197,6795.801168577304,6795.801168577304,6804.645290778305,6816.371062388219
198,6807.383315463761,6807.383315463761,6816.371062388219,6827.426923959255
199,6839.5764822698975,6839.5764822698975,6840.893156507961,6855.588325133846
200,6869.982257770298,6869.982257770298,6877.661093770393,6889.337129597615
201,6924.113842262159,6924.113842262159,6929.460688600525,6945.320072140681
202,6966.053273485615,6966.053273485615,7015.6541218607845,7028.955551284367
203,7003.588722365611,7015.6541218607845,7032.836443480638,7043.687022755611
204,7021.274038123172,7032.836443480638,7043.687022755611,7059.797474592034
205,7043.216844665408,7043.216844665408,7059.797474592034,7076.289736292061
206,7089.018267689284,7089.018267689284,7099.117276455694,7116.899801106953
207,7110.323447583324,7110.323447583324,7123.120721174871,7142.889933561501
208,7149.4806388098405,7149.4806388098405,7150.978151951984,7166.961846479735
209,7162.841081667901,7162.841081667901,7166.961846479735,7186.587961340152
210,7186.041213301764,7186.041213301764,7189.980873912928,7205.743966768769
211,7208.213527366916,7208.213527366916,7218.555205495212,7238.646087101495
212,7221.849737972854,7221.849737972854,7238.646087101495,7256.196037177563
213,7236.892840459421,7236.892840459421,7256.196037177563,7267.237528288359
214,7271.346579724948,7271.346579724948,7277.255627713279,7294.872701798672
215,7303.082507309169,7303.082507309169,7313.595427938806,7327.467507337264
216,7356.049648273831,7356.049648273831,7373.016033804442,7393.7852413556
217,7378.686926644359,7378.686926644359,7416.785802477876,7433.338860001858
218,7423.393551624061,7423.393551624061,7448.968825753075,7462.347335786488
219,7477.468453665552,7477.468453665552,7477.724882162147,7492.68187606128
220,7507.631735607292,7507.631735607292,7523.193529041248,7538.466852440935
221,7556.456437337314,7556.456437337314,7559.333464346429,7570.693360795281
222,7593.08667447463,7593.08667447463,7602.0229407023335,7618.055232006966
223,7620.045270276282,7620.045270276282,7620.422758859371,7637.231299363345
224,7655.300678392249,7655.300678392249,7663.773914819993,7679.031892391965
225,7669.365172792637,7669.365172792637,7699.413398635715,7710.454707365752
226,7695.23848194696,7699.413398635715,7710.454707365752,7722.818747261716
227,7722.557104751111,7722.557104751111,7727.741425501109,7746.623822244127
228,7766.088242550253,7766.088242550253,7785.50926292584,7800.443886938149
229,7788.438307018866,7788.438307018866,7814.6969397233215,7829.734628643766
230,7811.182339160561,7814.6969397233215,7831.2075163394,7852.414445967071
231,7856.193285413694,7856.193285413694,7863.462934651219,7878.75774044577
232,7913.420227016169,7913.420227016169,7928.7521940144115,7945.462139240706
233,7968.963396000502,7968.963396000502,7970.697162751001,7990.143926433975
234,8026.615842022561,8026.615842022561,8029.311460496723,8049.0953764230735
235,8042.241659162478,8042.241659162478,8049.0953764230735,8063.693119823805
236,8096.573789053272,8096.573789053272,8102.668828283905,8119.724276481166
237,8127.937157042953,8127.937157042953,8130.312035022053,8152.712793668746
238,8183.683268257644,8183.683268257644,8195.647118237363,8206.86182701272
239,8209.23607797531,8209.23607797531,8217.020265245847,8234.602920851486
240,8232.473989246895,8232.473989246895,8239.473265394472,8256.984133534072
241,8249.053471277619,8249.053471277619,8256.984133534072,8271.599769670032
242,8290.805590246373,8290.805590246373,8294.978808109214,8310.080860737315
243,8306.849445899263,8306.849445899263,8310.080860737315,8326.637677152527
244,8350.01878893608,8350.01878893608,8355.727169434007,8372.798427600439
245,8391.812208420133,8391.812208420133,8408.816751372204,8420.152030590521
246,8410.890391127397,8410.890391127397,8436.249699689934,8452.07020923502
247,8463.238499386045,8463.238499386045,8466.073832800375,8486.166915566928
248,8508.757688788199,8508.757688788199,8515.815740603912,8529.672321068067
249,8555.205323676575,8555.205323676575,8604.51578701705,8618.566401082277
250,8591.412485991408,8604.51578701705,8618.566401082277,8633.280685082937
251,8647.25747159741,8647.25747159741,8649.775187490131,8668.44118414141
252,8683.802717579007,8683.802717579007,8692.694184515232,8700.764143486418
253,8699.142677040963,8699.142677040963,8700.764143486418,8714.519369481839
254,8748.42253389488,8748.42253389488,8771.970979473652,8794.53884653204
255,8787.474812190974,8787.474812190974,8794.53884653204,8808.341909381277
256,8834.995655893894,8834.995655893894,8838.501212653608,8850.358335413726
