# file created by code in harbour_fns_1896438.jl
# file created on 2026-03-09 at 15:39:38
# parameter: seed = 1896492
# parameter: T = 30000.0
# parameter: lower_interarrival = 11.0
# parameter: upper_interarrival = 59.0
# parameter: mean_process_times = [11.0, 16.0]
# parameter: max_queue = [9223372036854775807, 4]
# parameter: time_units = hours
id,arrival_time,start_service_times,start_service_times,completion_time
1,0.0,0.0,5.220078987182395,19.150196067389906
2,18.999873133205558,18.999873133205558,33.489482971198555,53.25997564763972
3,32.64151363256997,33.489482971198555,53.25997564763972,74.36254495329914
4,51.491586444469206,51.491586444469206,74.36254495329914,91.53705734796138
5,90.51674240050782,90.51674240050782,100.25368560751586,116.43147114273863
6,130.16538723184067,130.16538723184067,133.35340548796805,148.04361177560418
7,162.75040712732863,162.75040712732863,180.46254741677976,200.48348036565508
8,199.51433621855875,199.51433621855875,202.0839314183015,217.84244744877353
9,245.15868126810423,245.15868126810423,262.9548595712838,276.7539577834081
10,295.7370215089677,295.7370215089677,297.142847703105,315.0999500427598
11,324.858678471107,324.858678471107,338.7112643446229,351.3681187717435
12,381.2400910421627,381.2400910421627,391.5604481995554,405.7472218305968
13,399.476798769218,399.476798769218,405.7472218305968,426.448945146198
14,443.74887626553465,443.74887626553465,445.45605336065194,464.16165135320455
15,494.0595673281115,494.0595673281115,496.85162340294943,511.3630574820429
16,551.3429397421534,551.3429397421534,561.1157429946421,573.2183907734342
17,610.0434751032562,610.0434751032562,615.2861241552741,632.4209877042435
18,638.10363556122,638.10363556122,655.10293095312,671.3672980474381
19,656.0793805880486,656.0793805880486,675.4858102249366,692.0132917735814
20,673.8186305267562,675.4858102249366,696.6423024773909,711.5733714608913
21,728.1521762741145,728.1521762741145,731.3383919006495,750.9218239373079
22,741.9916409841262,741.9916409841262,752.8948218383968,768.6372830979172
23,792.1149981820269,792.1149981820269,795.9976637228831,811.8542927934615
24,832.7518054624281,832.7518054624281,857.3957406618093,871.6361381113669
25,861.8819817830188,861.8819817830188,935.5027919595896,946.6557192537007
26,877.3349715292118,935.5027919595896,958.4203077992727,975.566983449292
27,911.2767257059456,958.4203077992727,975.566983449292,996.4638083671866
28,948.2832713228357,971.1463061994232,996.4638083671866,1008.9786755113576
29,995.0155863433442,995.0155863433442,1008.9786755113576,1026.174601555627
30,1040.9248484581528,1040.9248484581528,1041.9951273668257,1058.2526621583522
31,1091.117600244796,1091.117600244796,1097.6092460482178,1112.895999939858
32,1131.7358356904888,1131.7358356904888,1148.9530985869276,1166.575800158912
33,1172.0542001417357,1172.0542001417357,1175.1767604736829,1187.6235439628924
34,1195.3505650012728,1195.3505650012728,1200.8067401990954,1214.752907676724
35,1247.8942556415905,1247.8942556415905,1248.9975450212048,1263.1489774696818
36,1298.6351621757194,1298.6351621757194,1323.057245283301,1338.7517275274165
37,1337.5201734403552,1337.5201734403552,1371.4042454991395,1391.3788173853388
38,1365.475626372187,1371.4042454991395,1391.3788173853388,1411.6621063460286
39,1403.7616088294499,1403.7616088294499,1411.6621063460286,1423.549453994843
40,1445.9920300472745,1445.9920300472745,1447.3121688859267,1458.7875035156867
41,1457.0772071710098,1457.0772071710098,1459.8413593693024,1475.8463106406218
42,1481.5703159950874,1481.5703159950874,1483.5066318742856,1500.6495376325477
43,1537.1042597898977,1537.1042597898977,1538.7457155896159,1558.8301197890387
44,1595.8207230338298,1595.8207230338298,1599.2580931254774,1613.7745275138132
45,1624.8241965241184,1624.8241965241184,1629.6514095966802,1643.9627780216726
46,1659.5639246298254,1659.5639246298254,1666.1211384494354,1685.1367416186574
47,1697.9791248427182,1697.9791248427182,1698.8447775705604,1717.530366590506
48,1755.514715800899,1755.514715800899,1764.6579524118683,1784.8121189230912
49,1812.9200435884004,1812.9200435884004,1833.2792364530153,1844.9876400732815
50,1827.7443492398672,1833.2792364530153,1844.9876400732815,1859.777766617417
51,1863.423344636448,1863.423344636448,1868.6794227477442,1887.5870758126698
52,1893.4302295113107,1893.4302295113107,1902.9216925473359,1919.8866753598222
53,1948.7637975168645,1948.7637975168645,1949.5994043341288,1966.2424259206489
54,2004.5549857405517,2004.5549857405517,2015.723412581656,2028.338880838232
55,2051.3448897949393,2051.3448897949393,2055.7813386931684,2069.1123223096297
56,2084.492041465855,2084.492041465855,2095.29934220305,2114.763477561988
57,2135.7919386642116,2135.7919386642116,2143.3305380581296,2161.0221401457397
58,2148.5351196713427,2148.5351196713427,2161.0221401457397,2175.9234503974267
59,2203.540591331016,2203.540591331016,2227.0474398662955,2244.6298269009326
60,2223.460318926294,2227.0474398662955,2244.6298269009326,2263.306941606157
61,2257.935072724299,2257.935072724299,2263.674194875313,2275.853462450646
62,2283.6009731095637,2283.6009731095637,2306.076893654954,2326.306498187799
63,2325.0520505799323,2325.0520505799323,2333.872350706161,2346.9339969712064
64,2350.5132170388256,2350.5132170388256,2362.880271034396,2382.674915201237
65,2399.7013036164485,2399.7013036164485,2401.2534827224117,2421.5288106021353
66,2450.501745784447,2450.501745784447,2468.901122602079,2483.7330887077915
67,2463.766739899441,2468.901122602079,2483.7330887077915,2502.306212868884
68,2505.6670256569932,2505.6670256569932,2523.2134240531805,2541.911973051469
69,2540.8190684279366,2540.8190684279366,2559.928053815303,2575.983361065463
70,2597.6986845594342,2597.6986845594342,2610.2920983243584,2627.7478407773133
71,2620.3323754439466,2620.3323754439466,2632.601099276839,2644.706950374605
72,2646.5426496640225,2646.5426496640225,2646.5547311534756,2662.398526920857
73,2660.1194467874834,2660.1194467874834,2676.70540327453,2697.3386062749623
74,2679.2649573029116,2679.2649573029116,2697.3386062749623,2710.7390892779395
75,2734.8240647690704,2734.8240647690704,2734.856878659732,2753.834036785245
76,2748.3460215878677,2748.3460215878677,2792.5820337472683,2803.7363622775883
77,2766.2774331671358,2792.5820337472683,2803.7363622775883,2812.9917595120983
78,2777.662323066612,2796.2903476315155,2830.2587829369195,2848.9555340028514
79,2830.4416111995793,2830.4416111995793,2848.9555340028514,2871.1578660713158
80,2869.5558017076314,2869.5558017076314,2879.1928440566508,2899.847901881354
81,2893.4709502302308,2893.4709502302308,2899.847901881354,2913.763368823587
82,2930.09925693686,2930.09925693686,2935.1898804843795,2948.7541076129683
83,2976.370380118383,2976.370380118383,2981.8669127397693,2996.9595724669693
84,3007.4171158411937,3007.4171158411937,3024.129797590811,3042.006139898617
85,3066.2798702424066,3066.2798702424066,3074.214953304009,3089.2360364252795
86,3095.4837129963917,3095.4837129963917,3103.4348997550296,3123.9480983200474
87,3119.109316542257,3119.109316542257,3157.48334863772,3174.3780795917855
88,3175.4927689456863,3175.4927689456863,3183.0929833220634,3196.0499925988697
89,3199.0575047458747,3199.0575047458747,3201.4719077090617,3219.3746318661397
90,3256.76417249098,3256.76417249098,3263.8416910290043,3281.4939197959143
91,3286.451946668785,3286.451946668785,3310.5408726413534,3324.5382693253346
92,3316.723356568327,3316.723356568327,3324.5382693253346,3335.7360693838696
93,3364.1206085200074,3364.1206085200074,3375.833029761834,3393.601165022137
94,3375.8125439665314,3375.833029761834,3393.601165022137,3408.9336717716296
95,3420.372544665053,3420.372544665053,3450.8252840221708,3466.982188650678
96,3471.516700615214,3471.516700615214,3478.568378237136,3490.586176131641
97,3507.3452475980253,3507.3452475980253,3525.9465877828106,3543.2014600371217
98,3558.2039043029204,3558.2039043029204,3559.280085545555,3571.4187316028556
99,3596.713923305876,3596.713923305876,3623.157350000842,3637.2363733903762
100,3639.3873626151844,3639.3873626151844,3644.715855713221,3664.253467433545
101,3663.491497625583,3663.491497625583,3678.8389535287774,3697.9666196159415
102,3696.6122962538975,3696.6122962538975,3715.4809757996954,3732.238427916269
103,3726.3544688392717,3726.3544688392717,3733.226263632431,3746.8203295744456
104,3749.847769834359,3749.847769834359,3774.6439325736205,3788.3738248021605
105,3770.367621978398,3774.6439325736205,3788.3738248021605,3804.9918406737115
106,3786.5581935867217,3786.5581935867217,3804.9918406737115,3818.712353898585
107,3802.541984964068,3802.541984964068,3826.5066969972936,3845.1243680453026
108,3842.4193874157836,3842.4193874157836,3847.9352053561433,3870.5089945279374
109,3867.9333364909185,3867.9333364909185,3870.834870063918,3887.3244188859107
110,3894.0422033008203,3894.0422033008203,3913.45421908924,3929.12245642952
111,3907.3108097049653,3913.45421908924,3929.12245642952,3947.1267606803617
112,3939.5157359047826,3939.5157359047826,3961.7981752773508,3977.8845768691112
113,3960.4835131722,3961.7981752773508,3977.8845768691112,3993.517513968937
114,3991.4571965728173,3991.4571965728173,4000.6650179364465,4014.070452891317
115,4032.20830479022,4032.20830479022,4046.5223580872926,4061.7391862442805
116,4047.6873569128984,4047.6873569128984,4086.212703366202,4099.721585639748
117,4061.260931311237,4086.212703366202,4099.721585639748,4115.008694707875
118,4090.3457412304506,4090.3457412304506,4134.578026040463,4152.736593451602
119,4102.738128612689,4134.578026040463,4152.736593451602,4167.508551421419
120,4161.425097929643,4161.425097929643,4175.328146921023,4195.743822897889
121,4211.678643563573,4211.678643563573,4222.1688589800715,4238.980855152614
122,4234.084310914588,4234.084310914588,4238.980855152614,4253.030322607587
123,4252.90542520795,4252.90542520795,4261.689413645924,4276.743716891016
124,4285.994249676574,4285.994249676574,4291.712338097853,4308.017932908142
125,4328.728530448292,4328.728530448292,4345.474965811678,4366.221746106796
126,4345.913216231536,4345.913216231536,4366.221746106796,4381.994034881372
127,4386.672386453333,4386.672386453333,4402.254563847959,4416.014461130706
128,4444.13258125995,4444.13258125995,4456.487471944745,4471.760609122862
129,4456.605193321562,4456.605193321562,4471.760609122862,4481.768919569134
130,4513.239080742727,4513.239080742727,4513.806074508579,4532.825554041494
131,4554.9601968415545,4554.9601968415545,4561.419458259646,4580.992973420197
132,4587.69638503514,4587.69638503514,4589.0948941634415,4602.660392280372
133,4644.648318217325,4644.648318217325,4679.907425975813,4700.294882251072
134,4668.866665780371,4679.907425975813,4700.294882251072,4715.462966304838
135,4723.040064649458,4723.040064649458,4724.17853156286,4736.698116047789
136,4739.011593251718,4739.011593251718,4739.3661852421765,4757.691417341587
137,4778.4317306542425,4778.4317306542425,4794.821941216757,4808.838786151631
138,4818.688825635843,4818.688825635843,4839.182635389006,4853.255873793382
139,4861.879526344549,4861.879526344549,4868.89696855494,4880.776803520586
140,4888.439691118992,4888.439691118992,4889.44171375097,4906.738266649948
141,4905.365418401104,4905.365418401104,4909.023919632096,4924.699353777273
142,4946.201990621008,4946.201990621008,4948.757039337828,4966.623343926447
143,4957.265219562415,4957.265219562415,4966.623343926447,4985.913212468299
144,5002.666976027638,5002.666976027638,5033.832166721456,5051.873314134465
145,5037.160255940742,5037.160255940742,5053.467100104146,5067.064531620478
146,5050.806489686943,5053.467100104146,5080.908393317142,5096.326851881144
147,5092.7693208820365,5092.7693208820365,5101.605444344924,5119.5030983682955
148,5131.7829267131965,5131.7829267131965,5138.384821938233,5153.463207232918
149,5150.245042417809,5150.245042417809,5174.348068008535,5186.7539174475805
150,5170.959826031486,5174.348068008535,5189.683827505736,5206.53978367901
151,5194.6912012551065,5194.6912012551065,5210.54487437109,5227.119560451409
152,5220.075060813573,5220.075060813573,5236.798049177107,5253.5012941017885
153,5235.332265460229,5236.798049177107,5253.5012941017885,5271.299220580488
154,5271.730086342894,5271.730086342894,5310.7945726404,5325.24996727585
155,5324.851564652447,5324.851564652447,5336.674962771038,5348.679693164269
156,5352.75224884209,5352.75224884209,5354.3895648808675,5370.155612424226
157,5386.1411816538175,5386.1411816538175,5391.085573422464,5408.339007175537
158,5426.5170863992835,5426.5170863992835,5439.476053029676,5458.935159328978
159,5451.3527468360535,5451.3527468360535,5458.935159328978,5472.219699749388
160,5497.797127018541,5497.797127018541,5501.040908924549,5512.008093704224
161,5538.381832336991,5538.381832336991,5557.322705815478,5575.636911823936
162,5554.663348174376,5557.322705815478,5582.989832191142,5594.991556585798
163,5571.972180815112,5582.989832191142,5594.991556585798,5612.165073049436
164,5587.203479376226,5587.203479376226,5612.165073049436,5628.40867696404
165,5631.438173682076,5631.438173682076,5651.2103080908855,5667.458523847077
166,5683.868269608788,5683.868269608788,5722.491489238443,5736.656779691085
167,5698.790251078236,5722.491489238443,5748.584784173041,5760.80626226983
168,5740.397929058355,5748.584784173041,5763.085870064169,5780.551829265065
169,5766.365519774727,5766.365519774727,5780.551829265065,5793.432750696698
170,5781.36966248937,5781.36966248937,5793.432750696698,5808.137372719169
171,5805.407037808386,5805.407037808386,5812.8873621808925,5832.199872077841
172,5835.450341396878,5835.450341396878,5862.3425080375,5881.128301929529
173,5855.976668997442,5862.3425080375,5899.432186590952,5922.661820187721
174,5874.660445990122,5899.432186590952,5922.661820187721,5939.067139432288
175,5906.3941610592365,5906.3941610592365,5939.067139432288,5945.798514815173
176,5920.276683762851,5920.276683762851,5945.798514815173,5961.887354743747
177,5953.762975131762,5953.762975131762,5961.887354743747,5976.994193389921
178,5976.885093699012,5976.885093699012,5984.33646372117,5997.394570180697
179,6028.921406364744,6028.921406364744,6029.924557018385,6043.007932262749
180,6085.0870119835445,6085.0870119835445,6094.3789904715295,6106.274971897465
181,6133.9026032715565,6133.9026032715565,6152.871662745363,6171.04883355605
182,6176.960324307737,6176.960324307737,6187.99151382116,6208.439563208535
183,6214.511477731739,6214.511477731739,6217.990498751662,6234.954185056609
184,6258.368892642674,6258.368892642674,6280.868120968473,6294.616830050925
185,6271.73103423095,6280.868120968473,6294.616830050925,6310.399129690833
186,6301.228310424269,6301.228310424269,6310.399129690833,6325.00586163073
187,6320.860864220942,6320.860864220942,6329.800583441174,6339.17243808169
188,6345.012927827974,6345.012927827974,6359.233009054633,6380.752255682995
189,6379.447088902983,6379.447088902983,6412.2282085003635,6431.471407956332
190,6416.832788029537,6416.832788029537,6455.8521680571985,6472.0011131520405
191,6463.239526520064,6463.239526520064,6481.449434864799,6498.402559927518
192,6508.514634087812,6508.514634087812,6511.469912535667,6530.611276585587
193,6528.907169235931,6528.907169235931,6530.611276585587,6538.332652475537
194,6554.806895701449,6554.806895701449,6558.772957675255,6572.483195830662
195,6589.573531868409,6589.573531868409,6611.009446465314,6628.038699608461
196,6602.778378434968,6611.009446465314,6628.038699608461,6648.449984329553
197,6634.897896690934,6634.897896690934,6648.449984329553,6671.096485463681
198,6692.45335361809,6692.45335361809,6695.0735275054985,6705.802626101677
199,6742.0089317149195,6742.0089317149195,6744.849175002683,6759.433361901734
200,6768.447891454462,6768.447891454462,6768.9144463386165,6786.342230709839
201,6813.549784301735,6813.549784301735,6824.43885827221,6837.321045155678
202,6857.751101059169,6857.751101059169,6871.120552525977,6889.104765656806
203,6901.634826246901,6901.634826246901,6923.724303804409,6945.746243968792
204,6953.019934646167,6953.019934646167,6964.762165383117,6977.526055976399
205,7010.689985587449,7010.689985587449,7041.331390808494,7055.632643923218
206,7056.476795250054,7056.476795250054,7064.173273260634,7081.88833784162
207,7089.925042255947,7089.925042255947,7091.70643175779,7106.403238616212
208,7102.074651451047,7102.074651451047,7106.403238616212,7123.385581893712
209,7132.99560553254,7132.99560553254,7143.562258419852,7156.313649322213
210,7151.726683072419,7151.726683072419,7156.313649322213,7167.634883010925
211,7181.958363080614,7181.958363080614,7193.758190489941,7213.161768186341
212,7228.632428093927,7228.632428093927,7229.676086613406,7244.709691096507
213,7254.750390567677,7254.750390567677,7266.046733813534,7283.314202791094
214,7303.288235123256,7303.288235123256,7303.695629112071,7326.647533007687
215,7343.539526056797,7343.539526056797,7344.812184550343,7371.027582015332
216,7384.080447919134,7384.080447919134,7390.11863622149,7398.14918314748
217,7429.691875057838,7429.691875057838,7449.894505631946,7467.384074615824
218,7451.2993871164135,7451.2993871164135,7467.384074615824,7484.149371816186
219,7496.120621659249,7496.120621659249,7498.630301493846,7521.002269964313
220,7532.547842531827,7532.547842531827,7533.318481515933,7548.4364979327465
221,7575.811436308851,7575.811436308851,7586.039505728295,7599.3672296561135
222,7595.411306566635,7595.411306566635,7620.160180968467,7630.981719792645
223,7616.6374695663235,7620.160180968467,7630.981719792645,7649.015326793748
224,7667.445466199066,7667.445466199066,7671.842016713589,7684.260657275224
225,7695.76541567699,7695.76541567699,7736.577332606508,7751.276985339261
226,7707.714494508825,7736.577332606508,7751.276985339261,7772.323871215898
227,7737.382279268633,7741.094865129207,7772.323871215898,7785.275042115079
228,7790.793630544193,7790.793630544193,7841.326231924992,7858.407981847384
229,7804.839034818217,7841.326231924992,7858.407981847384,7879.102527139208
230,7861.170193957615,7861.170193957615,7879.102527139208,7894.578206586576
231,7904.418610798873,7904.418610798873,7912.499082113552,7928.50186857496
232,7945.713400789532,7945.713400789532,7948.2910431868795,7968.5385997851035
233,7970.393351152468,7970.393351152468,7976.430466980611,7990.52430285306
234,7984.609961202843,7984.609961202843,7991.440398554796,8010.171700203252
235,8016.514644948592,8016.514644948592,8020.137374874654,8033.072844505271
236,8060.109091484485,8060.109091484485,8061.333807528458,8081.350541881348
237,8072.673339643585,8072.673339643585,8099.371182005684,8113.645265889079
238,8095.025793101255,8099.371182005684,8113.645265889079,8130.238767056732
239,8139.08644713961,8139.08644713961,8140.049991965097,8154.105634072148
240,8190.7333679205185,8190.7333679205185,8231.464269217453,8248.593947618483
241,8220.085274572737,8231.464269217453,8248.593947618483,8265.965865828295
242,8238.636362064975,8238.636362064975,8265.965865828295,8283.166556632244
243,8261.674606544497,8261.674606544497,8283.166556632244,8295.660492358176
244,8312.725221678502,8312.725221678502,8326.740202676672,8341.790434815606
245,8337.576251977162,8337.576251977162,8362.433423056995,8376.082323891167
246,8351.710472408779,8362.433423056995,8376.082323891167,8390.209350690879
247,8388.248460641813,8388.248460641813,8403.663232523393,8420.898965668157
248,8419.888625098938,8419.888625098938,8429.958565786314,8447.635030018399
249,8470.808502211676,8470.808502211676,8480.0367694843,8493.106441694617
250,8504.144487905252,8504.144487905252,8534.63859806623,8549.416718358641
251,8532.65751079213,8534.63859806623,8551.354826612527,8567.434814066399
252,8585.146330147698,8585.146330147698,8589.205920517757,8607.301540020775
253,8631.129093910025,8631.129093910025,8699.803013657804,8717.918670175028
254,8656.352338901577,8699.803013657804,8750.012671294578,8767.155519196898
255,8673.425028456726,8750.012671294578,8767.155519196898,8780.01297243841
256,8698.761415486415,8750.66352108292,8780.74304936148,8795.300454699138
