# file created by code in harbour_fns_1896438.jl
# file created on 2026-03-09 at 15:39:36
# parameter: seed = 1896462
# parameter: T = 30000.0
# parameter: lower_interarrival = 11.0
# parameter: upper_interarrival = 59.0
# parameter: mean_process_times = [11.0, 16.0]
# parameter: max_queue = [9223372036854775807, 4]
# parameter: time_units = hours
id,arrival_time,start_service_times,start_service_times,completion_time
1,0.0,0.0,4.944316071599695,24.967351468382727
2,33.213016609283635,33.213016609283635,35.48044177900898,52.825699344417664
3,80.5203200708246,80.5203200708246,85.78218282215138,98.26944527798659
4,132.37189070834563,132.37189070834563,134.29598266196038,154.88587053569168
5,146.29594965059025,146.29594965059025,167.93782789602545,182.27864683228017
6,172.0858242523316,172.0858242523316,183.6799249132988,197.60113227034395
7,202.79364467772464,202.79364467772464,210.91613502308783,225.03663768300527
8,218.2676600191735,218.2676600191735,225.03663768300527,244.406398883273
9,229.84293951142067,229.84293951142067,244.406398883273,257.9655924880767
10,251.3405991215752,251.3405991215752,257.9655924880767,277.7428967077432
11,270.4671446785462,270.4671446785462,277.7428967077432,296.6421375790936
12,327.3835493735876,327.3835493735876,340.9864708795676,360.17048523742017
13,359.55267462394227,359.55267462394227,363.248277712733,380.41841917583247
14,380.1681154702742,380.1681154702742,390.6002374432602,401.3451193829068
15,434.6701489118854,434.6701489118854,439.0300186995754,455.3316924193632
16,488.5296680200578,488.5296680200578,492.978810363875,510.39795653790213
17,507.3420240154077,507.3420240154077,542.2667322585454,557.8027259712378
18,524.6503636755655,542.2667322585454,557.8027259712378,571.0179715613073
19,551.3756831365224,556.4586255534693,572.5601807174982,583.111326864981
20,609.37189561925,609.37189561925,628.8661292106754,647.601870809161
21,664.9076363841677,664.9076363841677,668.086157045763,682.231039990288
22,715.5396095134703,715.5396095134703,720.5831211581348,739.1242171512292
23,772.4327378158538,772.4327378158538,831.0731050257551,852.8943636341809
24,823.4861730445131,831.0731050257551,852.8943636341809,867.9744178798508
25,846.485884401064,846.485884401064,867.9744178798508,883.1775618876228
26,903.132580330731,903.132580330731,904.2391889210877,919.2802071129638
27,931.386218546849,931.386218546849,933.1251429795045,945.0374843586771
28,950.0958203009894,950.0958203009894,966.9193498276605,984.885212888647
29,985.4962954266739,985.4962954266739,987.1794131291801,1003.4251927794216
30,1031.0979107956653,1031.0979107956653,1041.3589997302067,1059.2181066426692
31,1080.0476906334063,1080.0476906334063,1081.2855561487786,1096.1855953675552
32,1138.7495501151193,1138.7495501151193,1147.3553574664313,1160.030027107964
33,1181.3162211367182,1181.3162211367182,1200.8100797065395,1215.5785204516935
34,1224.7494057714919,1224.7494057714919,1245.1025101277974,1264.791432993964
35,1275.7519933271465,1275.7519933271465,1284.0185087338298,1301.0099297506276
36,1307.257610586407,1307.257610586407,1333.0688962998902,1345.2294758048856
37,1359.3269860286284,1359.3269860286284,1361.6307942756923,1377.6755922032046
38,1411.2405969182187,1411.2405969182187,1425.0508607324941,1438.8375414368484
39,1428.5787202722704,1428.5787202722704,1438.8375414368484,1455.9873334338458
40,1452.848927345437,1452.848927345437,1466.1471827057496,1477.425083127987
41,1465.7919393992527,1466.1471827057496,1501.7009435708287,1518.1737527988907
42,1515.840780554156,1515.840780554156,1518.1737527988907,1527.8597384317613
43,1561.478362081059,1561.478362081059,1594.9326715888299,1611.3102225975445
44,1588.448119225042,1594.9326715888299,1611.3102225975445,1628.1944757289416
45,1620.0236733665265,1620.0236733665265,1628.1944757289416,1645.8093760404518
46,1674.3236727662354,1674.3236727662354,1677.255024277275,1691.4133378027816
47,1700.4631839559993,1700.4631839559993,1710.0017014609648,1728.6949257030465
48,1723.4147161124083,1723.4147161124083,1728.6949257030465,1747.3319023635038
49,1771.0800176136208,1771.0800176136208,1772.5685512000414,1787.4933327358574
50,1826.4726360196703,1826.4726360196703,1839.7020045732725,1856.2612236639454
51,1872.2939506249222,1872.2939506249222,1874.37236967517,1891.604212523577
52,1924.5386880450924,1924.5386880450924,1934.2437419149564,1949.021348923573
53,1941.6375299885533,1941.6375299885533,1976.5694211125651,1989.6531168538318
54,1957.3748559247683,1976.5694211125651,1989.6531168538318,2009.4627021343615
55,2009.518241741324,2009.518241741324,2015.6983013716397,2034.4367621313722
56,2033.7054484495297,2033.7054484495297,2039.4432394755358,2061.3422576012144
57,2047.069826053938,2047.069826053938,2063.732989909124,2080.2267049272546
58,2063.938449981714,2063.938449981714,2094.8078048772845,2107.8231949088054
59,2093.6433751394193,2094.8078048772845,2107.8231949088054,2125.458179964429
60,2107.3951450928685,2107.3951450928685,2125.458179964429,2139.995786851703
61,2140.2946939228214,2140.2946939228214,2143.8110922613796,2158.043225700024
62,2185.4966911450006,2185.4966911450006,2191.1554466967573,2207.8671778899593
63,2240.703527260213,2240.703527260213,2278.1430860391783,2299.2659429509445
64,2274.520414911625,2278.1430860391783,2299.2659429509445,2313.7089598042103
65,2326.078511532111,2326.078511532111,2327.777297947971,2341.0752412649576
66,2346.5283739378324,2346.5283739378324,2375.242532745715,2395.359622978233
67,2374.4389995881756,2375.242532745715,2395.359622978233,2407.85174093851
68,2397.0269617939266,2397.0269617939266,2422.4419829477974,2442.2629977972556
69,2438.2094556827687,2438.2094556827687,2442.2629977972556,2463.0144172692294
70,2493.517418170718,2493.517418170718,2497.9095887816707,2513.570323256579
71,2522.168316647474,2522.168316647474,2544.6427739520714,2558.6209177343944
72,2576.585570535222,2576.585570535222,2580.424680759942,2593.7399754680464
73,2603.487673739452,2603.487673739452,2607.59365248001,2628.3367572716093
74,2662.2328181014836,2662.2328181014836,2662.3983227995154,2681.7345987142494
75,2696.6210937002456,2696.6210937002456,2719.7513509965647,2736.6203546284555
76,2721.8407949189427,2721.8407949189427,2736.6203546284555,2755.5535360555396
77,2772.2217905048697,2772.2217905048697,2774.003432405888,2794.022912883914
78,2808.6147923930075,2808.6147923930075,2826.7878762233895,2843.674896337569
79,2819.861152285481,2826.7878762233895,2849.9330060799743,2868.4958806673194
80,2854.8914306059173,2854.8914306059173,2868.4958806673194,2882.560542011339
81,2879.4529019263236,2879.4529019263236,2889.2665987764567,2904.9169362435928
82,2909.1284925772825,2909.1284925772825,2910.8667956299882,2926.567982268743
83,2936.4633634595875,2936.4633634595875,2942.925103438896,2957.4835347121284
84,2991.888262859585,2991.888262859585,3030.3238630853,3047.730199055413
85,3007.0930588044303,3030.3238630853,3047.730199055413,3063.88405111169
86,3037.6987549005858,3037.893267976868,3063.88405111169,3086.2068198074167
87,3087.991222583672,3087.991222583672,3093.253555068288,3109.1355653586693
88,3130.413623042593,3130.413623042593,3132.5722152991766,3146.8301142648465
89,3173.1577127137857,3173.1577127137857,3174.985816916443,3190.277998433092
90,3211.7213355124686,3211.7213355124686,3221.6860253150426,3243.401190172497
91,3238.402055245023,3238.402055245023,3259.2537564700674,3271.6563024229604
92,3262.0344293908315,3262.0344293908315,3277.1820563181886,3294.1330857584003
93,3291.1504696331262,3291.1504696331262,3300.182953433252,3316.3518539845436
94,3329.731290033872,3329.731290033872,3337.9081810084162,3355.656891151498
95,3383.2614551992256,3383.2614551992256,3385.975555625782,3398.4979318867713
96,3409.0121578679073,3409.0121578679073,3410.807632014068,3426.4836837791345
97,3456.254413901936,3456.254413901936,3460.896249771316,3477.5902070356333
98,3474.7216280405382,3474.7216280405382,3477.5902070356333,3495.1635796295454
99,3531.4054839939613,3531.4054839939613,3537.748544133196,3551.5046713928327
100,3558.3870236630178,3558.3870236630178,3559.95301409545,3582.0744507132404
101,3577.071790792718,3577.071790792718,3627.2615747627524,3641.659602391006
102,3606.1966591158966,3627.2615747627524,3641.659602391006,3660.2435244509247
103,3638.053706506659,3638.053706506659,3660.2435244509247,3675.4596086559454
104,3692.1226479386714,3692.1226479386714,3693.0006432353243,3707.7342299537263
105,3728.4237135337394,3728.4237135337394,3740.2667245401617,3756.779254681021
106,3756.9207539010463,3756.9207539010463,3758.134068349352,3769.571648855387
107,3797.706898664552,3797.706898664552,3820.416116151931,3833.17889419164
108,3821.1496366782662,3821.1496366782662,3833.17889419164,3846.2653756738123
109,3840.389187835321,3840.389187835321,3846.2653756738123,3866.1032704255053
110,3854.9278142671474,3854.9278142671474,3866.1032704255053,3880.547933543535
111,3873.2783288597493,3873.2783288597493,3880.547933543535,3896.674530420166
112,3892.8954107422446,3892.8954107422446,3896.674530420166,3909.1696409520537
113,3922.1531476263854,3922.1531476263854,3939.499260611357,3954.363879993473
114,3964.940415114237,3964.940415114237,3972.875612089615,3986.443015565263
115,3978.2171904441734,3978.2171904441734,3986.443015565263,3999.104900429414
116,4025.2224341330902,4025.2224341330902,4030.879951086017,4045.047241384784
117,4065.3168576163716,4065.3168576163716,4073.898195564907,4089.294023710047
118,4107.960674676972,4107.960674676972,4122.2249993,4139.024586960203
119,4151.386701822762,4151.386701822762,4154.811399044949,4172.809583897177
120,4165.312998878339,4165.312998878339,4172.809583897177,4182.954296630299
121,4223.6827669979475,4223.6827669979475,4235.416344520317,4249.9770334438
122,4237.365080412753,4237.365080412753,4263.434443145967,4282.523505767298
123,4284.912672057873,4284.912672057873,4290.036704686936,4314.137212035176
124,4334.729732848889,4334.729732848889,4344.604269645419,4359.268353912147
125,4390.737382684971,4390.737382684971,4403.608520955665,4416.914115430426
126,4417.010449777745,4417.010449777745,4420.442575439797,4435.810115898423
127,4474.321138352519,4474.321138352519,4488.080964740817,4505.368629647152
128,4518.045821536587,4518.045821536587,4527.19323457054,4548.389453319296
129,4540.449823735158,4540.449823735158,4574.591405358404,4589.8530977845085
130,4596.271653761599,4596.271653761599,4603.285349678926,4619.193218112846
131,4646.208799975424,4646.208799975424,4662.087966417521,4678.0808415161855
132,4700.877180865175,4700.877180865175,4726.322374546379,4742.800899972857
133,4728.007047950211,4728.007047950211,4748.555493971476,4765.153401433402
134,4765.602904046004,4765.602904046004,4775.0022562957265,4788.804536061873
135,4822.844871906712,4822.844871906712,4824.449652493086,4839.239311127886
136,4838.2627429148515,4838.2627429148515,4871.286559453161,4882.662700423241
137,4850.7285943218685,4871.286559453161,4882.662700423241,4898.601998072418
138,4899.964873528237,4899.964873528237,4917.221197509899,4931.978067163276
139,4953.666327303447,4953.666327303447,4966.143881722269,4980.108586819622
140,4984.538836649489,4984.538836649489,4988.467379631726,5003.699342995121
141,5014.894418410163,5014.894418410163,5022.531502515951,5036.3859817728835
142,5065.902606927367,5065.902606927367,5074.19558197326,5093.0174447163845
143,5093.429753509737,5093.429753509737,5095.69651993257,5111.259350091788
144,5149.060732323068,5149.060732323068,5172.027854392209,5186.14875898008
145,5161.736124266525,5172.027854392209,5186.14875898008,5202.874836230682
146,5182.797807623626,5182.797807623626,5202.874836230682,5215.548288582921
147,5216.86447039639,5216.86447039639,5230.9498537622585,5247.146194838088
148,5267.046768316063,5267.046768316063,5267.35631847856,5283.030253470911
149,5309.144057488062,5309.144057488062,5318.621179742921,5334.691521514578
150,5361.412484725994,5361.412484725994,5369.117098140413,5388.975306114355
151,5383.840049168193,5383.840049168193,5389.706736839227,5400.936437087445
152,5405.371316213652,5405.371316213652,5407.649244860406,5421.706120956943
153,5456.621895167565,5456.621895167565,5459.148087531925,5478.658325528792
154,5506.242350591792,5506.242350591792,5511.317897773928,5526.69747327761
155,5526.739753713608,5526.739753713608,5528.408142017955,5542.415172289311
156,5549.980588566612,5549.980588566612,5559.0796839579225,5577.165616069079
157,5596.6123781747165,5596.6123781747165,5598.240709207728,5613.071003270571
158,5618.077555960059,5618.077555960059,5625.426092358529,5640.678641132473
159,5653.763790074789,5653.763790074789,5662.505144023992,5679.730297269939
160,5691.18150815698,5691.18150815698,5694.01999581043,5707.957815813824
161,5714.016617828523,5714.016617828523,5717.8990156420505,5734.576959632306
162,5766.779646308243,5766.779646308243,5775.317223008353,5792.320805510276
163,5803.6744782070145,5803.6744782070145,5844.732739301714,5864.42136005091
164,5835.492672291357,5844.732739301714,5864.42136005091,5879.7827277114075
165,5859.478672052495,5859.478672052495,5882.271101156594,5888.052224226589
166,5903.4656625405805,5903.4656625405805,5914.613505150288,5934.760643822066
167,5923.946197415237,5923.946197415237,5934.760643822066,5951.83067034594
168,5935.80502804791,5935.80502804791,5951.83067034594,5963.267946806383
169,5957.411506324502,5957.411506324502,5965.5800579806055,5981.184435163565
170,6012.600203823142,6012.600203823142,6017.088894752357,6027.342368693386
171,6059.890498212226,6059.890498212226,6067.24759159962,6084.244202100451
172,6117.702875828897,6117.702875828897,6118.983597751542,6136.519883239194
173,6163.646939076159,6163.646939076159,6184.249067052122,6201.593882565624
174,6222.416099121171,6222.416099121171,6231.093280197048,6250.472434104969
175,6258.408662152775,6258.408662152775,6286.7543552745165,6300.078750549414
176,6289.827044152087,6289.827044152087,6300.078750549414,6313.3381324661295
177,6306.761047785406,6306.761047785406,6313.3381324661295,6331.56214256892
178,6319.4209145785035,6319.4209145785035,6339.055171808828,6356.621212468241
179,6359.800371681362,6359.800371681362,6360.4112140244215,6369.698467810399
180,6413.431825277608,6413.431825277608,6439.022606032137,6452.905014089988
181,6427.802842436826,6439.022606032137,6452.905014089988,6465.303594072765
182,6455.897677128014,6455.897677128014,6465.303594072765,6482.166491618849
183,6478.644140610897,6478.644140610897,6502.297912064443,6518.9082268086895
184,6518.214088490571,6518.214088490571,6546.625172151118,6565.358541150405
185,6563.012793548868,6563.012793548868,6565.358541150405,6587.091634969148
186,6599.928725618518,6599.928725618518,6601.258638122313,6618.37529089752
187,6642.08844900922,6642.08844900922,6644.38450789998,6660.427546387733
188,6682.245233021471,6682.245233021471,6689.448694322401,6706.030247742139
189,6732.43610477457,6732.43610477457,6733.623881176562,6747.813761217758
190,6762.812302346988,6762.812302346988,6772.205367515226,6789.059270600513
191,6811.227776200553,6811.227776200553,6825.427719102263,6841.399923512554
192,6869.040395159214,6869.040395159214,6872.652752271279,6887.957259725713
193,6911.547941787108,6911.547941787108,6945.30858128827,6958.715507481824
194,6933.953422147235,6945.30858128827,6958.715507481824,6971.266070254782
195,6974.035326896019,6974.035326896019,6988.488770835762,7011.106652600108
196,6998.384124421191,6998.384124421191,7011.106652600108,7029.442337040509
197,7056.858353723633,7056.858353723633,7083.187217535681,7097.820346827056
198,7094.859573425901,7094.859573425901,7106.768688340018,7125.79107577864
199,7123.256282361409,7123.256282361409,7129.221894659245,7142.140396791711
200,7176.382410414944,7176.382410414944,7185.497752683102,7197.65051404174
201,7214.61004289658,7214.61004289658,7222.253359924548,7236.208332878429
202,7239.729839241346,7239.729839241346,7259.996213972791,7275.029601578382
203,7298.618620899701,7298.618620899701,7301.866754102408,7318.754497871656
204,7354.660246867281,7354.660246867281,7390.029035049827,7407.65709509544
205,7390.911172159765,7390.911172159765,7407.65709509544,7429.407508416587
206,7440.184497599196,7440.184497599196,7446.616919166411,7465.7529053991475
207,7475.08032204017,7475.08032204017,7485.043522410064,7499.215485941569
208,7532.625526040273,7532.625526040273,7536.442745080851,7551.179144553279
209,7591.178819835622,7591.178819835622,7600.608181197577,7617.311917482192
210,7626.493939986884,7626.493939986884,7627.051912995687,7635.880742730439
211,7672.688683387653,7672.688683387653,7703.036557108155,7720.416361117605
212,7704.995899892172,7704.995899892172,7720.416361117605,7733.51530338909
213,7735.374585322421,7735.374585322421,7738.014360272103,7757.756542045939
214,7789.373763510819,7789.373763510819,7792.430877899856,7805.915146973612
215,7815.855194475098,7815.855194475098,7816.647389905513,7830.676817993506
216,7840.949668366351,7840.949668366351,7848.757214806562,7862.150917838604
217,7864.20548697607,7864.20548697607,7891.82182897455,7912.57271116756
218,7877.623606638152,7891.82182897455,7912.57271116756,7924.797057873297
219,7895.491560513103,7895.491560513103,7924.797057873297,7942.817437988694
220,7940.3604267828405,7940.3604267828405,7942.817437988694,7968.739125077024
221,7986.222558685697,7986.222558685697,8000.257107905013,8022.102903209907
222,8021.008741899079,8021.008741899079,8024.888780995032,8044.885421440964
223,8076.668962181586,8076.668962181586,8083.100982161042,8100.251208529919
224,8122.579803305763,8122.579803305763,8136.558093192384,8154.95532001021
225,8163.061987316254,8163.061987316254,8170.244312936587,8185.366599173405
226,8179.452925458666,8179.452925458666,8185.484046610057,8197.346755303835
227,8210.04478636422,8210.04478636422,8211.637355991641,8229.002648924748
228,8223.447406566595,8223.447406566595,8229.002648924748,8252.9069198566
229,8276.524326664829,8276.524326664829,8278.434061034874,8294.630421814407
230,8298.95252304308,8298.95252304308,8301.859243200832,8313.221425130912
231,8324.65866640994,8324.65866640994,8332.089381056638,8350.057677776334
232,8351.694805175337,8351.694805175337,8372.856795456135,8384.473494166834
233,8371.324573813561,8372.856795456135,8390.139886180772,8404.086265663456
234,8390.474961330608,8390.474961330608,8404.086265663456,8420.98864007949
235,8444.597148179544,8444.597148179544,8448.573666069793,8464.00884577779
236,8499.532102597152,8499.532102597152,8534.73691353101,8551.71163865528
237,8518.441678094663,8534.73691353101,8551.71163865528,8565.879302473511
238,8537.313712623734,8538.685693434194,8565.879302473511,8580.189841682704
239,8589.395067283172,8589.395067283172,8630.051950852854,8650.697307574785
240,8642.331660369224,8642.331660369224,8650.697307574785,8661.9091174888
241,8700.110247271754,8700.110247271754,8700.313961246327,8714.816680645119
242,8758.048692693275,8758.048692693275,8767.116012111854,8783.637210004523
243,8805.090879802292,8805.090879802292,8836.353352337592,8854.108316288497
244,8854.927551488685,8854.927551488685,8861.66866776502,8877.273863821943
245,8907.819115525659,8907.819115525659,8923.314245523723,8931.826677439747
246,8961.717891931183,8961.717891931183,8970.251719451078,8982.739207620363
247,8983.024376786248,8983.024376786248,8985.226207806,9006.066427145757
248,8998.67337036003,8998.67337036003,9019.0583093269,9037.452090396846
249,9014.179948262354,9019.0583093269,9053.490475888344,9069.089994187834
250,9049.923600645165,9053.490475888344,9069.089994187834,9083.761204580396
251,9066.756278886543,9066.756278886543,9083.761204580396,9093.037250656886
252,9121.358148981792,9121.358148981792,9121.644613618448,9138.108781012379
253,9155.36773537113,9155.36773537113,9185.628897620245,9202.244194423698
254,9188.327721878366,9188.327721878366,9202.244194423698,9222.243849154078
255,9236.48342368674,9236.48342368674,9237.185592281903,9251.767473686432
256,9291.74812023963,9291.74812023963,9292.891029890903,9305.377512068404
257,9327.01538142074,9327.01538142074,9342.288859853854,9356.257976169712
