# file created by code in harbour_fns_1896438.jl
# file created on 2026-03-09 at 15:39:39
# parameter: seed = 1896523
# parameter: T = 30000.0
# parameter: lower_interarrival = 11.0
# parameter: upper_interarrival = 59.0
# parameter: mean_process_times = [11.0, 16.0]
# parameter: max_queue = [9223372036854775807, 4]
# parameter: time_units = hours
id,arrival_time,start_service_times,start_service_times,completion_time
1,0.0,0.0,2.165403868650505,18.843035995032793
2,23.512958207924875,23.512958207924875,24.238339790828228,40.73259942017627
3,44.04981284119991,44.04981284119991,50.22114690518808,64.179548138094
4,78.62233416728625,78.62233416728625,82.91544918193611,94.24135645515464
5,95.30877040341204,95.30877040341204,100.03487604666878,110.79933517069726
6,121.34111678272875,121.34111678272875,140.82937732983038,153.84347115983832
7,178.11718047913698,178.11718047913698,179.7622833306571,191.2901046007899
8,204.45110084731746,204.45110084731746,219.7280609520074,236.4072230947474
9,223.05049316158798,223.05049316158798,236.4072230947474,246.18487720863436
10,278.1813106353155,278.1813106353155,290.97002872899424,308.6957546626265
11,317.50833448995024,317.50833448995024,336.94100658984246,356.1094589310861
12,329.5432488933568,336.94100658984246,356.1094589310861,369.49808739853046
13,358.34787436823774,358.34787436823774,369.49808739853046,383.64996647832567
14,395.9263358520483,395.9263358520483,452.51132828812854,464.7253106481269
15,440.1221188047449,452.51132828812854,464.7253106481269,481.37866877427695
16,467.7494876135821,467.7494876135821,486.7593978358143,507.83372577679353
17,496.2524064360465,496.2524064360465,525.2095654196322,543.0852790175484
18,554.6686315053779,554.6686315053779,611.1269230568902,629.5783891070522
19,589.3340287444329,611.1269230568902,629.5783891070522,649.580019154186
20,646.2742811368278,646.2742811368278,649.580019154186,664.841432854872
21,693.6683470747112,693.6683470747112,705.3841630996251,723.0045806011817
22,714.0216598613201,714.0216598613201,725.4433532416776,740.8177975156932
23,760.419447263439,760.419447263439,764.3067393718208,782.0788739429224
24,797.0580561544587,797.0580561544587,813.7021194193342,829.8863983273885
25,841.9341982700449,841.9341982700449,843.5252209682054,860.6132869807615
26,894.7760298084844,894.7760298084844,905.5744177290135,926.8997431250352
27,945.3074241674149,945.3074241674149,957.3638554853756,970.1262567181363
28,998.3343718857936,998.3343718857936,1008.434624415438,1025.9368577789087
29,1052.9697999010423,1052.9697999010423,1054.7606037522935,1066.6418511146815
30,1111.9040788477791,1111.9040788477791,1121.2246298456382,1138.9948757730435
31,1152.4410049326627,1152.4410049326627,1167.146334177816,1182.8999294411428
32,1206.8499778399057,1206.8499778399057,1254.7187953494451,1270.7214344589072
33,1260.172064093004,1260.172064093004,1270.7214344589072,1287.3002258419733
34,1293.955779251744,1293.955779251744,1323.932722909012,1340.3754852560328
35,1322.3136594311236,1323.932722909012,1340.3754852560328,1360.4453792638053
36,1341.773941980117,1341.773941980117,1360.4453792638053,1379.6328616183268
37,1381.1240984722444,1381.1240984722444,1392.6775798976246,1406.4431446239532
38,1401.0138984257708,1401.0138984257708,1406.4431446239532,1419.0678749318715
39,1421.8188309714653,1421.8188309714653,1423.2936676569352,1439.7638346475107
40,1444.0997170042353,1444.0997170042353,1457.3130613723497,1470.4462280949924
41,1486.115481325384,1486.115481325384,1499.1637717415201,1514.177655873563
42,1535.111572516317,1535.111572516317,1536.77787250608,1554.0198519760982
43,1586.713455705698,1586.713455705698,1595.0535404972652,1613.3993238176622
44,1600.5765020288463,1600.5765020288463,1613.3993238176622,1628.8953046455483
45,1617.233097325669,1617.233097325669,1640.9180186090184,1656.7971864884119
46,1650.4424718610724,1650.4424718610724,1656.7971864884119,1676.0433277715945
47,1696.4021605816743,1696.4021605816743,1737.3196949760038,1753.8033819621996
48,1710.844339150046,1737.3196949760038,1753.8033819621996,1768.7229294010112
49,1762.5281695711062,1762.5281695711062,1796.3603045504017,1813.3954846568236
50,1815.33146989483,1815.33146989483,1832.2716597162946,1841.5796028903949
51,1868.212180377753,1868.212180377753,1874.7296312156402,1895.9288450390022
52,1884.187324664889,1884.187324664889,1925.151586788808,1944.6445522612369
53,1940.5219144728535,1940.5219144728535,1957.6034952721884,1971.7538498435615
54,1998.041360797659,1998.041360797659,2000.1042108512609,2019.1187447542177
55,2020.3859593668026,2020.3859593668026,2045.6645331783916,2060.267539132934
56,2078.7036690872237,2078.7036690872237,2083.161680835206,2097.2227543197628
57,2132.2285206667934,2132.2285206667934,2143.0606778214674,2156.3103661284813
58,2163.688197541222,2163.688197541222,2164.998088026067,2178.477397242358
59,2192.9194381768452,2192.9194381768452,2224.7964457875078,2236.655566099359
60,2216.95611562115,2224.7964457875078,2236.655566099359,2258.5599523359647
61,2245.159692347465,2245.159692347465,2264.4324426926646,2287.552708070048
62,2300.150822673218,2300.150822673218,2301.918946132206,2318.1215093370874
63,2346.665677608249,2346.665677608249,2349.8442012585497,2364.3819921511226
64,2364.4191965526707,2364.4191965526707,2367.5141789674353,2383.7942278139567
65,2379.9284786165313,2379.9284786165313,2383.7942278139567,2402.4415101850145
66,2407.5460111836255,2407.5460111836255,2423.81874551043,2446.334693550391
67,2422.578001063073,2423.81874551043,2446.334693550391,2459.294729578077
68,2453.043724284184,2453.043724284184,2463.6926040822227,2486.251535362715
69,2491.578650305826,2491.578650305826,2493.579158582736,2516.3034876994125
70,2549.5489484558925,2549.5489484558925,2574.0234946332257,2587.8935803774725
71,2607.9619786441026,2607.9619786441026,2611.4674228727545,2627.4938346669314
72,2639.6872841751388,2639.6872841751388,2646.677092076576,2662.8450850063728
73,2659.401389978023,2659.401389978023,2662.8450850063728,2678.975643096495
74,2679.317656249578,2679.317656249578,2681.3441571186468,2696.6567533749594
75,2733.1083819965,2733.1083819965,2750.2551661820403,2761.8146622688228
76,2748.458651967425,2750.2551661820403,2768.556386383505,2779.5765159303755
77,2799.885003816452,2799.885003816452,2810.400714012099,2830.972891001455
78,2822.499051199947,2822.499051199947,2830.972891001455,2853.7821285448804
79,2881.4494517073153,2881.4494517073153,2905.4996405761735,2926.9393702311027
80,2931.0271940300495,2931.0271940300495,2934.194756158529,2952.6682096636487
81,2960.1719674362716,2960.1719674362716,2961.6197299842297,2983.544081596869
82,3009.651570141966,3009.651570141966,3020.4631203661647,3037.1679137894253
83,3064.4186200961067,3064.4186200961067,3066.6660957329254,3080.9796869852466
84,3091.8529890148343,3091.8529890148343,3094.112016547918,3108.660055159614
85,3133.2003795247515,3133.2003795247515,3148.0648312646304,3167.8248365984737
86,3170.1801329765776,3170.1801329765776,3170.331953036372,3183.365850233366
87,3197.5365561242656,3197.5365561242656,3219.4291427640333,3238.303756074322
88,3224.5570233785443,3224.5570233785443,3247.331766004292,3267.0470966731423
89,3279.703102899739,3279.703102899739,3280.5789895609028,3296.7887827918803
90,3338.4093379548654,3338.4093379548654,3357.6731223480615,3372.0921835819295
91,3354.5833963236173,3357.6731223480615,3372.0921835819295,3390.032026033191
92,3392.6902587306117,3392.6902587306117,3394.965700291493,3406.112618249917
93,3436.0895366933682,3436.0895366933682,3452.2115896974205,3462.703926081908
94,3453.774445721385,3453.774445721385,3462.703926081908,3479.1919967330364
95,3492.518423744957,3492.518423744957,3575.990424720537,3588.096836046483
96,3527.7516728335486,3575.990424720537,3604.883678481253,3617.9327700202184
97,3565.6661760411225,3604.883678481253,3617.9327700202184,3630.048906961312
98,3618.2107995098445,3618.2107995098445,3632.4614405682473,3647.2929391226544
99,3640.8481508437158,3640.8481508437158,3647.2929391226544,3662.298729322578
100,3673.324528934284,3673.324528934284,3691.3575212636792,3704.763576820617
101,3708.7414459505094,3708.7414459505094,3736.0830037708274,3752.886889315139
102,3748.2171327446126,3748.2171327446126,3757.5030184591096,3771.777006610712
103,3785.537238281132,3785.537238281132,3786.463807745986,3802.737739705008
104,3805.252680704115,3805.252680704115,3808.1287996797732,3826.328059514871
105,3848.700812168457,3848.700812168457,3856.52786224328,3867.89138076406
106,3888.1504016256363,3888.1504016256363,3925.8979355200872,3936.5784767364885
107,3905.9198739363546,3925.8979355200872,3936.6370029114296,3954.638952197591
108,3964.331195529103,3964.331195529103,3965.928610926254,3982.8274499680215
109,3980.0619087400287,3980.0619087400287,4001.230527071741,4013.8007493483346
110,4015.1663770159744,4015.1663770159744,4019.8054450282907,4038.1583370784765
111,4053.429754435025,4053.429754435025,4060.552877709106,4074.6142739449015
112,4073.2254912247668,4073.2254912247668,4087.6642462586533,4100.314970952285
113,4122.08488906224,4122.08488906224,4127.105386142843,4139.487333019111
114,4169.795146524809,4169.795146524809,4206.121336617705,4223.383041710206
115,4201.122568763207,4206.121336617705,4231.918557034713,4251.304001550769
116,4258.550160691647,4258.550160691647,4303.716522506512,4316.2067510564575
117,4315.862033240081,4315.862033240081,4345.744176403828,4358.897127059558
118,4354.870042238176,4354.870042238176,4379.265205300776,4398.232723532651
119,4401.101662395661,4401.101662395661,4401.966080947625,4414.586239240344
120,4453.573051263997,4453.573051263997,4456.794203274603,4475.901541779439
121,4505.778893493724,4505.778893493724,4510.299635068458,4528.55814108066
122,4540.584781000916,4540.584781000916,4542.36316312496,4559.755401531283
123,4588.454356749405,4588.454356749405,4589.5754909828975,4604.866303596034
124,4603.790032273751,4603.790032273751,4609.504945030846,4628.551082244191
125,4642.506175062431,4642.506175062431,4657.792324598959,4678.107160752473
126,4668.988836066502,4668.988836066502,4678.107160752473,4691.500434611401
127,4714.483574640292,4714.483574640292,4716.5216988210905,4734.047120441467
128,4766.950595185843,4766.950595185843,4800.5902180080075,4817.358348812484
129,4799.519453892958,4800.5902180080075,4823.988234035133,4841.496900135618
130,4839.259386890969,4839.259386890969,4843.090595601487,4859.778096797085
131,4893.640245974834,4893.640245974834,4922.297279773514,4936.100092286183
132,4937.615180830336,4937.615180830336,4967.512331037234,4977.1765225550835
133,4985.024368691378,4985.024368691378,5014.105049674874,5034.597919708693
134,5042.314939917177,5042.314939917177,5071.531793997784,5092.205974370765
135,5054.5387078912045,5071.531793997784,5092.205974370765,5104.36787928505
136,5111.0570896038125,5111.0570896038125,5118.6968271518135,5137.500623638631
137,5148.14193667023,5148.14193667023,5148.242743887488,5162.084710491909
138,5160.761513049845,5160.761513049845,5163.73493584956,5179.705216356167
139,5200.690551353101,5200.690551353101,5200.870381931652,5214.850436347653
140,5223.234154280889,5223.234154280889,5224.8445405543425,5238.989239422447
141,5271.415666023543,5271.415666023543,5272.369728158704,5287.185088735141
142,5300.8470139171495,5300.8470139171495,5303.1396120186355,5316.103099929069
143,5334.104599631037,5334.104599631037,5337.469772000389,5352.314426401902
144,5354.846771125655,5354.846771125655,5356.69353039381,5372.732512355334
145,5393.795804184089,5393.795804184089,5416.486094932865,5433.906642921645
146,5450.440233280055,5450.440233280055,5466.8715498718675,5478.608098001253
147,5489.074639683541,5489.074639683541,5511.989917612516,5528.826752601734
148,5510.6632523960525,5511.989917612516,5528.826752601734,5544.899388006384
149,5526.068546070979,5526.068546070979,5544.899388006384,5560.231827729115
150,5546.334684380906,5546.334684380906,5571.507441338259,5586.824742637425
151,5585.168211495173,5585.168211495173,5609.964155195228,5618.820784301109
152,5608.603272192147,5609.964155195228,5618.820784301109,5632.571543934925
153,5629.363447289086,5629.363447289086,5632.759965978985,5647.92602319443
154,5644.445698570865,5644.445698570865,5647.92602319443,5663.145691852418
155,5699.384561578635,5699.384561578635,5716.924708543075,5735.172469779916
156,5721.234875679287,5721.234875679287,5735.172469779916,5746.801957762673
157,5751.355694612807,5751.355694612807,5756.997808826903,5772.195732738797
158,5782.532869952602,5782.532869952602,5789.87476688676,5807.574303035642
159,5801.800662418237,5801.800662418237,5808.3312808345445,5827.363293705418
160,5829.461547319656,5829.461547319656,5836.662166078813,5853.210660182021
161,5848.8265869433535,5848.8265869433535,5853.513017109192,5869.453100228632
162,5893.745191179513,5893.745191179513,5913.124745180713,5927.095241280605
163,5945.953680616345,5945.953680616345,5975.685649428036,5985.58294094086
164,5984.766423013546,5984.766423013546,5992.020526887565,6000.792162969374
165,6009.705395699528,6009.705395699528,6019.4952179148695,6035.180647173646
166,6040.70629882272,6040.70629882272,6041.091198419635,6055.163601635045
167,6094.1121727685495,6094.1121727685495,6111.511891315437,6130.698585871484
168,6109.1136622021295,6111.511891315437,6138.9348813790475,6159.158632152034
169,6151.136199872789,6151.136199872789,6165.305051322858,6185.452026471242
170,6174.107218757377,6174.107218757377,6210.755187625862,6230.131019930004
171,6216.923028447045,6216.923028447045,6230.131019930004,6242.749502996557
172,6271.1250414382075,6271.1250414382075,6275.539349684059,6293.24390252095
173,6294.346500465866,6294.346500465866,6295.905778216669,6308.836258158334
174,6321.67560559709,6321.67560559709,6330.606939316149,6344.228413965631
175,6371.959869381617,6371.959869381617,6384.642932423133,6400.8950194987265
176,6406.118280960298,6406.118280960298,6424.245998809855,6439.447529665823
177,6441.976066607585,6441.976066607585,6443.9778161997165,6459.0906963975785
178,6487.36857873903,6487.36857873903,6518.283345500979,6536.150898228798
179,6507.524949083205,6518.283345500979,6536.150898228798,6551.900183327951
180,6520.599173772422,6528.202329358271,6551.900183327951,6564.14298766312
181,6544.932993122911,6544.932993122911,6567.0057807743715,6580.772129930819
182,6560.945832982815,6567.0057807743715,6581.022712228481,6594.408761567925
183,6579.387242230001,6581.022712228481,6594.408761567925,6611.639173678794
184,6603.433425458701,6603.433425458701,6613.820653568522,6631.170061269739
185,6618.97007320222,6618.97007320222,6658.3023022956195,6672.471256663797
186,6638.018583559017,6658.3023022956195,6672.471256663797,6689.254813163109
187,6670.729845209367,6670.729845209367,6689.254813163109,6704.663037186027
188,6684.415644908876,6684.415644908876,6704.663037186027,6717.372324354423
189,6710.939831753854,6710.939831753854,6717.372324354423,6735.22138805819
190,6762.377845457694,6762.377845457694,6767.839844240397,6785.144639262409
191,6817.3242386976035,6817.3242386976035,6834.395626447075,6851.1152986706475
192,6847.639901932465,6847.639901932465,6869.13763191954,6882.4273014128175
193,6879.410793251907,6879.410793251907,6894.46218431614,6906.573656804449
194,6900.77264755255,6900.77264755255,6906.573656804449,6924.407757300954
195,6916.253384298402,6916.253384298402,6924.407757300954,6943.809601067869
196,6969.79179527837,6969.79179527837,6971.388778638222,6990.9226168122705
197,7003.865987244111,7003.865987244111,7006.6101222796015,7020.341098599326
198,7030.749911555636,7030.749911555636,7031.953838655226,7044.970434350014
199,7058.8472113750195,7058.8472113750195,7062.913382299917,7080.111231732281
200,7099.300112515197,7099.300112515197,7110.1925743953225,7121.191301279465
201,7156.620278778297,7156.620278778297,7169.704932108343,7191.095494887977
202,7174.3751138022135,7174.3751138022135,7191.095494887977,7205.0996100791735
203,7185.774647773129,7185.774647773129,7205.0996100791735,7222.253769110654
204,7222.497093036763,7222.497093036763,7251.480536508091,7264.970974603408
205,7275.055090015962,7275.055090015962,7295.1127305462805,7308.513739855447
206,7314.63888622357,7314.63888622357,7325.898671411822,7336.877283929325
207,7361.95578194361,7361.95578194361,7363.595486696956,7374.6113467318755
208,7396.740018377532,7396.740018377532,7405.556843562757,7424.113704250846
209,7450.300218315301,7450.300218315301,7455.724546033432,7468.718121738777
210,7482.392944415891,7482.392944415891,7492.516642341746,7508.242028447315
211,7531.0674353816985,7531.0674353816985,7539.370565242456,7547.673107976395
212,7570.736352466634,7570.736352466634,7577.924095325489,7600.124711445053
213,7612.910978825568,7612.910978825568,7615.279576815099,7633.74235247882
214,7639.01318599922,7639.01318599922,7651.1755388436095,7668.092652616384
215,7666.195018041047,7666.195018041047,7672.554284292125,7685.881720492321
216,7721.579508008184,7721.579508008184,7756.392008371806,7773.536357595229
217,7745.453341498587,7756.392008371806,7773.536357595229,7789.526061964347
218,7764.425697206851,7765.6428437145605,7789.526061964347,7803.239557271163
219,7811.81023787396,7811.81023787396,7825.773149479687,7839.299785354586
220,7863.6959318040035,7863.6959318040035,7870.774347811722,7886.968581569353
221,7907.568889703652,7907.568889703652,7914.082643828797,7931.625113433845
222,7920.8730769991635,7920.8730769991635,7950.278882814854,7970.302325033765
223,7962.863858029185,7962.863858029185,8028.072722197858,8047.565796569128
224,8018.459265625493,8028.072722197858,8048.381205200827,8062.0067316615
225,8033.484680016489,8048.381205200827,8062.0067316615,8073.434520989014
226,8064.878712211142,8064.878712211142,8075.608590350454,8086.624065924129
227,8111.343813815127,8111.343813815127,8128.3384514417585,8148.192096119233
228,8165.972480054475,8165.972480054475,8184.099215704938,8204.38793610661
229,8212.229810960873,8212.229810960873,8243.350905901652,8261.546701232654
230,8242.737812196758,8243.350905901652,8261.546701232654,8274.547195119996
231,8277.371305437662,8277.371305437662,8283.056305957723,8298.901315736322
232,8302.758718729114,8302.758718729114,8307.236784054792,8323.674411789567
233,8341.523700861782,8341.523700861782,8354.143351933433,8372.666765605392
234,8396.526020483321,8396.526020483321,8420.786972615975,8437.981268328489
235,8431.992645762431,8431.992645762431,8438.807705214329,8457.913123385773
236,8474.560703400874,8474.560703400874,8477.149083833707,8497.06480242226
237,8502.04482658295,8502.04482658295,8504.431411862735,8520.197641523499
238,8515.533044081734,8515.533044081734,8537.039841163367,8548.7651481591
239,8536.735339842759,8537.039841163367,8557.04449416198,8572.312269612015
240,8573.12945837894,8573.12945837894,8575.199169160991,8593.732304821753
241,8599.843921742806,8599.843921742806,8612.212953928496,8628.895417929389
242,8641.441927515902,8641.441927515902,8647.844679170465,8666.0760808283
243,8696.125136511317,8696.125136511317,8710.756809084152,8723.37994970847
244,8753.663687462567,8753.663687462567,8771.526133319676,8786.091436068604
245,8782.560326645465,8782.560326645465,8788.155924002145,8807.954994636073
246,8832.224932486639,8832.224932486639,8841.182267492019,8858.57548303825
247,8873.179145572438,8873.179145572438,8883.773225593266,8903.518856683877
248,8924.303631539422,8924.303631539422,8926.468683996516,8939.513928022634
249,8945.547919660175,8945.547919660175,8953.909051741864,8975.69196077973
250,8970.141796217453,8970.141796217453,8984.367442943032,8995.207966041502
251,8995.974247735936,8995.974247735936,8997.661144236934,9011.8995277072
252,9029.569252864369,9029.569252864369,9049.410566082908,9064.218414389878
253,9085.810625272117,9085.810625272117,9093.348155857686,9110.142736314874
254,9119.465514231279,9119.465514231279,9135.84970153604,9151.484767332226
255,9143.741868116254,9143.741868116254,9167.631773870527,9186.22582691206
256,9166.233447636201,9167.631773870527,9186.22582691206,9199.92114946594
