# file created by code in harbour_fns_1896438.jl
# file created on 2026-03-09 at 15:39:44
# parameter: seed = 1896589
# parameter: T = 30000.0
# parameter: lower_interarrival = 11.0
# parameter: upper_interarrival = 59.0
# parameter: mean_process_times = [11.0, 16.0]
# parameter: max_queue = [9223372036854775807, 4]
# parameter: time_units = hours
id,arrival_time,start_service_times,start_service_times,completion_time
1,0.0,0.0,0.17773802740465877,19.96475848960575
2,11.444042560553108,11.444042560553108,26.30064978224452,43.006803370129305
3,57.49974018860558,57.49974018860558,78.92995551308323,99.69494585629997
4,79.40469361290084,79.40469361290084,99.69494585629997,117.0872852539955
5,106.94350858558938,106.94350858558938,117.0872852539955,131.4418877218206
6,144.24438084125882,144.24438084125882,154.3410815479465,169.36459538979892
7,178.2013765009166,178.2013765009166,182.16610870488557,199.49236908585735
8,233.42624603937858,233.42624603937858,234.99282197162697,258.9425376654778
9,248.6396099495153,248.6396099495153,272.918763738511,286.68745703891926
10,263.9144112093405,272.918763738511,286.68745703891926,301.11940257114503
11,322.3526489763373,322.3526489763373,333.70897485182064,350.14090748863765
12,371.5853414744264,371.5853414744264,375.26729656417046,384.2429571876482
13,421.8658300024337,421.8658300024337,439.43723322532446,453.34424373143594
14,466.87078642736043,466.87078642736043,474.99085963178965,492.86534994738713
15,499.5961198557959,499.5961198557959,499.80146750462245,513.3741225885542
16,538.6724882806968,538.6724882806968,580.3385918439334,596.3119089763002
17,558.6256428596083,580.3385918439334,596.3119089763002,610.8409137355463
18,584.8479826213809,584.8479826213809,622.4226851188491,635.9390932005189
19,624.9279961643742,624.9279961643742,637.2864598951106,653.828280293222
20,639.152212801998,639.152212801998,653.828280293222,667.463868339715
21,683.3378998341371,683.3378998341371,686.8532059150449,702.7502715051007
22,717.559405299953,717.559405299953,720.5031460058766,737.316955184329
23,743.6382376529879,743.6382376529879,752.7660918003004,768.2629582915914
24,773.3129402956466,773.3129402956466,802.7423873051316,816.4252671087858
25,808.3579128134819,808.3579128134819,827.8862922235822,848.3593569424672
26,852.543730103156,852.543730103156,856.9515823790975,871.7164950225384
27,907.0957701709468,907.0957701709468,922.1509159400061,940.2999331671733
28,923.9758068589847,923.9758068589847,940.2999331671733,958.3255330112922
29,964.7604895173997,964.7604895173997,985.9076183382244,998.5566038576931
30,1008.2395398115049,1008.2395398115049,1011.0411978846475,1028.0977467109333
31,1020.4769660152224,1020.4769660152224,1028.0977467109333,1041.6423514646071
32,1046.956541259959,1046.956541259959,1066.083346761985,1085.4819568168698
33,1059.8349384460319,1066.083346761985,1085.4819568168698,1099.4285360473236
34,1106.7642525448423,1106.7642525448423,1113.2370689502857,1128.3001892416712
35,1145.565245936419,1145.565245936419,1152.5839883659362,1170.6337726713614
36,1188.808614182331,1188.808614182331,1200.6588850002415,1210.9227085538319
37,1224.5039185781511,1224.5039185781511,1224.7052739325784,1239.5618856301373
38,1261.286199287543,1261.286199287543,1263.893322355998,1278.4104561581998
39,1320.2841429536102,1320.2841429536102,1323.8603376941116,1344.5180535232078
40,1341.898276656909,1341.898276656909,1346.1882192046323,1363.8085148138491
41,1373.3845883708245,1373.3845883708245,1390.5418340733813,1405.7362499585297
42,1427.4536973680008,1427.4536973680008,1428.2283763044852,1443.5673383100898
43,1455.7578560533516,1455.7578560533516,1462.3486651735593,1477.7258991772287
44,1508.0630332608596,1508.0630332608596,1511.00623919813,1525.4156264819928
45,1519.4335905175526,1519.4335905175526,1526.8534141060961,1544.752504016938
46,1544.2944483190836,1544.2944483190836,1546.507503321461,1563.9643183225528
47,1561.4409747027,1561.4409747027,1576.3774095931367,1594.9477068495885
48,1586.1580663473196,1586.1580663473196,1599.3093645075583,1617.3276802065682
49,1625.368258553913,1625.368258553913,1637.787910037156,1653.1686473659106
50,1679.6242370611403,1679.6242370611403,1703.4447837483906,1715.6809493258852
51,1729.2092239679555,1729.2092239679555,1755.6227828139413,1767.4387527276044
52,1747.416956968149,1755.6227828139413,1767.4387527276044,1785.4982774409098
53,1799.8628384033748,1799.8628384033748,1800.3430900768165,1815.804927761591
54,1849.130334971676,1849.130334971676,1858.8205367673434,1872.4945227705539
55,1894.4563295716894,1894.4563295716894,1898.9189777445602,1915.967868614829
56,1951.1697937048102,1951.1697937048102,1971.464414595736,1983.0477224844774
57,1966.7355585547762,1971.464414595736,1983.0477224844774,1998.8694206870218
58,1989.5556107511975,1989.5556107511975,2011.1367659753816,2025.1033989416676
59,2040.1601702930432,2040.1601702930432,2040.2698061968777,2055.6063273273057
60,2060.0372740404814,2060.0372740404814,2066.1887162827843,2085.8981128052524
61,2103.3975906744713,2103.3975906744713,2114.6217619739123,2129.0966774487424
62,2135.709021362275,2135.709021362275,2143.188529678797,2161.0037825095355
63,2180.16020349361,2180.16020349361,2181.806963923712,2195.5750138564695
64,2215.7108962652305,2215.7108962652305,2239.5539075656184,2254.1523053950327
65,2263.924231965772,2263.924231965772,2282.022952769508,2303.9647174006504
66,2308.870879745567,2308.870879745567,2317.3775861153645,2333.936433898412
67,2365.4467830106323,2365.4467830106323,2374.2723498298196,2392.2528944722
68,2390.1262751357153,2390.1262751357153,2393.4761850901696,2405.0110489788954
69,2436.4566083576037,2436.4566083576037,2452.0611169189087,2464.4130575809018
70,2493.859077324877,2493.859077324877,2502.867850461182,2517.422217066733
71,2518.897775800081,2518.897775800081,2555.5611261722024,2571.3605992542716
72,2534.2614575524217,2555.5611261722024,2577.394734818313,2594.531037933643
73,2583.448680259086,2583.448680259086,2594.531037933643,2615.4577270525006
74,2596.4979395216374,2596.4979395216374,2615.4577270525006,2630.1260434850496
75,2645.7434956846164,2645.7434956846164,2652.390318073759,2668.0685830590974
76,2676.908965988591,2676.908965988591,2686.2863222350043,2697.690356579245
77,2703.690246907635,2703.690246907635,2712.7100676569116,2729.1798918463096
78,2746.1258737390467,2746.1258737390467,2761.7052260465,2780.0412125168878
79,2777.114364639434,2777.114364639434,2804.5283618180747,2824.045397921422
80,2801.3096297947523,2804.5283618180747,2824.045397921422,2843.0400904489334
81,2836.717568184382,2836.717568184382,2843.0400904489334,2857.8666572382213
82,2885.880446487965,2885.880446487965,2887.767869197079,2904.365124420261
83,2942.582223551897,2942.582223551897,2955.8023373975225,2969.1481936405544
84,2971.342948166869,2971.342948166869,2974.8775862554403,2989.4268162386834
85,3001.9972453055348,3001.9972453055348,3002.0715391291687,3019.213586727621
86,3037.7287764358152,3037.7287764358152,3042.9634840013955,3056.1782357643765
87,3053.273845814635,3053.273845814635,3056.1782357643765,3074.090553021017
88,3066.1081919169033,3066.1081919169033,3074.090553021017,3088.533179214401
89,3121.640145659929,3121.640145659929,3125.458290640679,3140.742581942605
90,3172.1433620795397,3172.1433620795397,3177.3349367904602,3201.9566018622663
91,3220.966308323942,3220.966308323942,3222.1347226454386,3236.778078700771
92,3245.216903041588,3245.216903041588,3253.393177763582,3271.5675549183234
93,3296.091181112879,3296.091181112879,3299.131200772561,3309.8509607832
94,3351.6431446252254,3351.6431446252254,3370.026970099375,3386.624548186143
95,3373.1961889994354,3373.1961889994354,3399.4301916308373,3418.7962907860738
96,3395.7358865150377,3399.4301916308373,3418.7962907860738,3430.5182302954963
97,3445.745887397757,3445.745887397757,3447.6264124391037,3461.461703528975
98,3493.6736835387496,3493.6736835387496,3515.256673334066,3537.3843914269446
99,3517.5629751480255,3517.5629751480255,3537.3843914269446,3549.9709580844014
100,3570.568423843486,3570.568423843486,3574.6482384142323,3593.1843894933413
101,3602.3447737276056,3602.3447737276056,3612.2905322682136,3631.6981299381673
102,3648.6339038582287,3648.6339038582287,3660.236394101501,3677.6268606040276
103,3696.754355795624,3696.754355795624,3720.525643971914,3732.7947302537596
104,3739.2715316406884,3739.2715316406884,3740.9108561113167,3759.5110734998675
105,3785.616969809553,3785.616969809553,3854.0317464859995,3864.595096570105
106,3797.2520338961226,3854.0317464859995,3890.338852229074,3909.178350982164
107,3822.3621230973117,3890.338852229074,3909.178350982164,3932.2050726587267
108,3879.9085945770235,3906.934840966629,3932.2050726587267,3946.094111253535
109,3902.241529515737,3912.1129953363748,3946.094111253535,3960.826937913165
110,3930.662231841603,3930.662231841603,3960.826937913165,3972.2538535515896
111,3976.6835653711837,3976.6835653711837,3981.5438169469785,3996.682465532998
112,4007.3813676108102,4007.3813676108102,4008.5526346501806,4024.4919228636822
113,4019.9111812827277,4019.9111812827277,4024.4919228636822,4041.422725752954
114,4047.893670391345,4047.893670391345,4051.2671649894805,4065.606165115766
115,4068.826895110851,4068.826895110851,4080.4624153291884,4095.3701685074293
116,4102.346245282732,4102.346245282732,4105.210641396395,4123.065413542781
117,4141.934639773498,4141.934639773498,4145.01825335515,4157.518429025506
118,4153.854628002664,4153.854628002664,4163.298296477708,4178.439634656594
119,4198.983816748247,4198.983816748247,4215.190771352761,4231.428706481255
120,4242.406114721177,4242.406114721177,4245.313426501116,4263.853641598799
121,4285.353248309678,4285.353248309678,4289.028644624148,4302.588847535172
122,4315.589791852315,4315.589791852315,4327.003987396489,4342.352935609644
123,4336.361034133363,4336.361034133363,4348.972504243674,4360.366983359893
124,4348.834374058146,4348.972504243674,4360.366983359893,4381.094484136553
125,4394.237110952414,4394.237110952414,4403.318089975427,4419.0474135330105
126,4442.1356853671205,4442.1356853671205,4444.459693100336,4464.597988002998
127,4488.831850036175,4488.831850036175,4494.94563120108,4512.714091976843
128,4521.605497823954,4521.605497823954,4524.130152655751,4533.334751830613
129,4552.185282200278,4552.185282200278,4581.6135669861615,4600.979466094672
130,4587.367516333003,4587.367516333003,4604.424104984873,4622.35185259527
131,4623.673810904662,4623.673810904662,4626.770984047294,4639.830710035028
132,4677.200154914894,4677.200154914894,4677.528811434168,4692.615709401689
133,4735.614306552416,4735.614306552416,4745.80938675468,4760.769373837121
134,4755.941738766231,4755.941738766231,4773.040215669449,4786.777436527505
135,4808.886877520072,4808.886877520072,4819.999422516083,4834.69385165356
136,4841.381853437809,4841.381853437809,4845.875072076098,4862.6578726079715
137,4893.7628385019,4893.7628385019,4893.983283337772,4911.499302353376
138,4922.162141050046,4922.162141050046,4930.662098632547,4947.850146496825
139,4948.523402801754,4948.523402801754,4949.240407463436,4958.9323190319465
140,5005.486764884766,5005.486764884766,5009.983902694435,5025.723546930721
141,5045.557982023879,5045.557982023879,5048.443416396207,5068.496505141667
142,5086.914040346018,5086.914040346018,5102.586143486822,5113.627339222446
143,5126.6468355756015,5126.6468355756015,5151.602834346481,5171.972657519982
144,5180.78652211941,5180.78652211941,5188.596999029587,5201.531487913584
145,5205.445406894798,5205.445406894798,5223.813069534019,5241.656504840153
146,5247.745491353695,5247.745491353695,5248.365423847985,5260.8969884449725
147,5300.721262613136,5300.721262613136,5304.079305695722,5321.027868111434
148,5357.070085919857,5357.070085919857,5363.708374883846,5380.94353900932
149,5411.018339377057,5411.018339377057,5432.8024903935475,5447.460700415983
150,5439.392536747675,5439.392536747675,5447.460700415983,5462.4084498911425
151,5467.935083848738,5467.935083848738,5470.325680529004,5485.184649904651
152,5518.906153405933,5518.906153405933,5530.793598182411,5549.834976191561
153,5567.842708262753,5567.842708262753,5574.13630945575,5589.6865088628065
154,5592.449626616633,5592.449626616633,5594.264875650627,5613.714030640053
155,5613.034808603101,5613.034808603101,5638.469170520583,5649.804297723942
156,5630.801670378609,5638.469170520583,5657.615372866603,5678.962223632298
157,5647.75021406821,5657.615372866603,5678.962223632298,5694.924276010608
158,5677.083768411264,5677.083768411264,5694.924276010608,5711.635623987885
159,5707.112820879498,5707.112820879498,5729.720494859188,5742.526296435786
160,5722.4719571500245,5729.720494859188,5742.526296435786,5761.602534975271
161,5760.763519590302,5760.763519590302,5768.755871407393,5787.176944442961
162,5807.918830735679,5807.918830735679,5828.347263022841,5840.75105085097
163,5849.454242953858,5849.454242953858,5853.151363109141,5871.141921693244
164,5890.625882410993,5890.625882410993,5898.793126300971,5917.269158552635
165,5943.511911687239,5943.511911687239,5964.19424746815,5982.381659453237
166,5998.504337007389,5998.504337007389,6003.178807613837,6016.396173747701
167,6024.385880379149,6024.385880379149,6024.788573313758,6035.654618958384
168,6070.486396977768,6070.486396977768,6075.645633885284,6095.396232778304
169,6095.903747576325,6095.903747576325,6097.061827256261,6110.862783237132
170,6107.138739057599,6107.138739057599,6115.704071754616,6129.777932237725
171,6149.028291091242,6149.028291091242,6174.406878020972,6195.030040583825
172,6207.752300948733,6207.752300948733,6214.602478552976,6235.179125228723
173,6254.814905096166,6254.814905096166,6267.97790352277,6282.324325900237
174,6269.329702171918,6269.329702171918,6282.324325900237,6304.535150951036
175,6285.097742951334,6285.097742951334,6321.5310511820135,6337.837679635655
176,6320.386924631853,6321.5310511820135,6369.080824962739,6388.819600562825
177,6337.153847512698,6369.080824962739,6388.819600562825,6404.4416426825765
178,6384.348008974465,6384.348008974465,6404.4416426825765,6418.429376737845
179,6401.537951489533,6401.537951489533,6420.14571439472,6437.995579138677
180,6417.314722588555,6420.14571439472,6437.995579138677,6457.1528570534865
181,6473.861905171122,6473.861905171122,6561.100873008258,6579.984319230284
182,6488.980573078774,6561.100873008258,6579.984319230284,6594.802374454474
183,6505.403973385276,6571.754647208555,6594.802374454474,6606.775094733422
184,6562.988364368748,6574.330311890352,6606.775094733422,6622.424353241634
185,6600.058190077965,6600.058190077965,6622.424353241634,6636.102775739242
186,6652.322455860184,6652.322455860184,6657.539706835682,6676.597048855211
187,6710.75636331852,6710.75636331852,6720.641792521944,6736.387627101457
188,6748.986863748219,6748.986863748219,6759.577131202642,6775.552245284322
189,6802.959869923347,6802.959869923347,6811.517426684789,6828.997137818687
190,6842.280247910804,6842.280247910804,6846.678325511665,6859.745705417325
191,6856.084853320191,6856.084853320191,6876.95394737867,6889.147629762272
192,6901.366277338638,6901.366277338638,6948.908173640753,6969.238792374356
193,6944.070919865499,6948.908173640753,6982.8201129186555,6995.67680455207
194,6988.052065705963,6988.052065705963,6998.4812863329835,7018.174503213893
195,7030.123703926123,7030.123703926123,7040.663303141024,7053.163212848134
196,7042.255488117458,7042.255488117458,7064.354378785539,7080.479788535615
197,7054.0384317756825,7064.354378785539,7080.479788535615,7103.7734256213225
198,7101.597331186831,7101.597331186831,7113.672390250103,7132.2332277372525
199,7120.992416816191,7120.992416816191,7132.2332277372525,7152.503963513497
200,7172.122412534214,7172.122412534214,7179.446256891288,7191.663825852242
201,7199.382587962445,7199.382587962445,7213.992108466581,7231.629897368279
202,7239.440647465415,7239.440647465415,7244.736465348472,7262.960401015395
203,7294.15713384562,7294.15713384562,7310.781307381794,7326.962502586842
204,7313.23827973979,7313.23827973979,7326.962502586842,7344.882976235266
205,7338.533166719094,7338.533166719094,7344.882976235266,7357.420180629343
206,7362.138169673117,7362.138169673117,7374.2117552604805,7391.208210454193
207,7407.2710801531375,7407.2710801531375,7423.318476199105,7440.5262536199
208,7453.485359324261,7453.485359324261,7455.2131945350175,7472.105408092525
209,7511.40903156964,7511.40903156964,7526.63923770376,7541.834188760072
210,7524.817027578537,7526.63923770376,7541.834188760072,7554.867419136849
211,7580.405039621535,7580.405039621535,7612.4349760596715,7627.929088564912
212,7592.819626227656,7612.4349760596715,7627.929088564912,7642.4135224391375
213,7607.807402052811,7617.212596906027,7642.4135224391375,7665.407008361429
214,7618.929911283268,7623.709504350441,7665.407008361429,7676.672123184888
215,7654.387222475376,7654.387222475376,7676.672123184888,7694.0266551697505
216,7673.167573096691,7673.167573096691,7694.0266551697505,7712.063446295427
217,7715.0698666506605,7715.0698666506605,7718.08164016515,7735.312427152048
218,7741.4400420196525,7741.4400420196525,7741.836856981419,7761.0521972048755
219,7793.772609441412,7793.772609441412,7793.914614536266,7809.86364008512
220,7825.3115955907215,7825.3115955907215,7826.90910614631,7842.315116317052
221,7852.252340746464,7852.252340746464,7852.786707075154,7871.819262018831
222,7890.47158752466,7890.47158752466,7896.074811299516,7909.7727185092335
223,7918.572616966513,7918.572616966513,7921.471416820672,7936.375258688175
224,7957.217719871145,7957.217719871145,7964.77694443806,7979.2114123231595
225,8009.809378655522,8009.809378655522,8013.123858980533,8030.411168903782
226,8065.270876546319,8065.270876546319,8070.3923215193345,8085.359263242068
227,8099.166343072289,8099.166343072289,8105.459738530017,8124.191440903756
228,8127.820931091683,8127.820931091683,8146.0146243039335,8159.962784560874
229,8149.595640174238,8149.595640174238,8159.962784560874,8179.791038358009
230,8180.36363228217,8180.36363228217,8202.18363344593,8217.098317951231
231,8196.42069240816,8202.18363344593,8217.098317951231,8239.198252621103
232,8217.31439434581,8217.31439434581,8239.198252621103,8255.494761126422
233,8244.372630720136,8244.372630720136,8255.494761126422,8270.579178164371
234,8290.316205605355,8290.316205605355,8291.063267458829,8306.304650919808
235,8320.223419347718,8320.223419347718,8324.316716681931,8338.307300590488
236,8338.138977745097,8338.138977745097,8349.014117511519,8368.78125359864
237,8395.188290371989,8395.188290371989,8397.864862414452,8411.95309339386
238,8424.879807884976,8424.879807884976,8431.927908605683,8448.882679101267
239,8455.922059125307,8455.922059125307,8462.090947929562,8480.34339963518
240,8477.82675052882,8477.82675052882,8480.554422560928,8496.206140747312
241,8515.260206839463,8515.260206839463,8515.503919086666,8532.686644273448
242,8557.127254866851,8557.127254866851,8570.695093703385,8585.194638161074
243,8605.90715976126,8605.90715976126,8627.34004100489,8644.3752685034
244,8664.113310393872,8664.113310393872,8673.461357839627,8688.97781035213
245,8687.152555242606,8687.152555242606,8696.178925503044,8710.988073466247
246,8712.726979068515,8712.726979068515,8713.72270201748,8733.190186913896
247,8729.35949695802,8729.35949695802,8740.598753824965,8758.04643301548
248,8764.540531066315,8764.540531066315,8803.584683539777,8815.386085060787
249,8775.706368424282,8803.584683539777,8815.386085060787,8832.420829825413
250,8787.240355940981,8803.903292701847,8832.420829825413,8838.861460079726
251,8807.578940278734,8809.966966839507,8843.569072812625,8859.157027483447
252,8833.996099904996,8843.569072812625,8859.157027483447,8877.211547315073
253,8872.349294872498,8872.349294872498,8877.566235787617,8895.577969313856
254,8888.456293734731,8888.456293734731,8897.159346675862,8912.378910031424
255,8908.368057566018,8908.368057566018,8917.793952649912,8933.419588708077
256,8919.855182780939,8919.855182780939,8987.499862426861,9004.35881521094
