# file created by code in harbour_fns_1896438.jl
# file created on 2026-03-09 at 15:39:41
# parameter: seed = 1896552
# parameter: T = 30000.0
# parameter: lower_interarrival = 11.0
# parameter: upper_interarrival = 59.0
# parameter: mean_process_times = [11.0, 16.0]
# parameter: max_queue = [9223372036854775807, 4]
# parameter: time_units = hours
id,arrival_time,start_service_times,start_service_times,completion_time
1,0.0,0.0,19.629107328026258,33.46943815296169
2,38.57358618104941,38.57358618104941,51.24029367654971,72.8222057586882
3,84.14144758475696,84.14144758475696,98.7091017313052,114.83575271167385
4,132.78427998429873,132.78427998429873,147.19904367549734,161.75720632996013
5,152.05736748345967,152.05736748345967,176.62007681084367,190.70584807237572
6,193.22285402056772,193.22285402056772,193.7741264701435,210.19785851220038
7,213.79053933719166,213.79053933719166,221.32605811650768,232.4116170426493
8,228.8189676741322,228.8189676741322,235.52011434983547,251.13886396088193
9,267.02146871991965,267.02146871991965,280.0156352390821,297.00340400441763
10,303.1852487663265,303.1852487663265,315.96542502408926,332.2603537859578
11,336.5753577784569,336.5753577784569,340.787868441507,354.97342923670544
12,361.318386799224,361.318386799224,363.32210186474913,379.02473863968487
13,394.42753625882693,394.42753625882693,395.05225646967585,409.3316937911535
14,414.90551824706733,414.90551824706733,430.3415792424161,446.42228320530813
15,428.60670974213406,430.3415792424161,446.42228320530813,460.7969282570873
16,486.64772024520573,486.64772024520573,488.1935771074619,498.68057254134663
17,507.0302881121696,507.0302881121696,520.0390038228729,538.5988962651013
18,553.5860574953612,553.5860574953612,559.0337501334068,571.7069592174005
19,572.8966132555312,572.8966132555312,581.9921019795769,601.775396408944
20,596.3791415647024,596.3791415647024,601.775396408944,621.5356062200323
21,607.4543743470315,607.4543743470315,621.5356062200323,639.0057338525595
22,633.9012869472314,633.9012869472314,640.666387931203,655.5490155666885
23,683.0074122823285,683.0074122823285,709.2603506985491,728.5756794074999
24,739.1315775187653,739.1315775187653,739.8908289861427,758.5237847109162
25,772.4152360232187,772.4152360232187,776.8382387755566,795.6252790731513
26,784.362758270534,784.362758270534,795.6252790731513,810.8659528347251
27,811.9335272591152,811.9335272591152,812.9597825801769,827.8340965180754
28,847.6231958884048,847.6231958884048,852.2537790350801,872.4218466524019
29,882.3545085195901,882.3545085195901,885.3652244497613,901.4401483741173
30,935.9523991189585,935.9523991189585,941.8279857574047,955.1858223046169
31,947.3274237409055,947.3274237409055,965.5234668854458,978.6947282291623
32,971.2825704025017,971.2825704025017,1027.8394808416317,1045.1074668926306
33,1004.0383229379149,1027.8394808416317,1045.1074668926306,1056.8264033435353
34,1037.9672158279968,1038.374545140488,1056.8264033435353,1074.4161086452762
35,1057.3495733463717,1057.3495733463717,1074.4161086452762,1091.529201042131
36,1075.457446341637,1075.457446341637,1091.529201042131,1111.7477608052898
37,1118.7696999606196,1118.7696999606196,1124.6335784864516,1132.053532976826
38,1137.4473192107203,1137.4473192107203,1137.4644332744808,1159.77858814019
39,1186.118669787088,1186.118669787088,1205.2537491396088,1223.4633091533187
40,1220.2573526770118,1220.2573526770118,1223.4633091533187,1238.6048861278762
41,1275.5631611853235,1275.5631611853235,1281.962170958587,1295.3286958926467
42,1326.5632402487565,1326.5632402487565,1344.4756806056625,1360.780263087162
43,1381.0377154038422,1381.0377154038422,1385.019420659287,1402.6780926785746
44,1429.5457614821664,1429.5457614821664,1440.6950807527535,1455.348747706802
45,1467.4659322231053,1467.4659322231053,1480.9785011417243,1500.1374834358721
46,1524.830087650126,1524.830087650126,1536.098311273821,1554.0332716810817
47,1569.7726927877043,1569.7726927877043,1598.9700090446236,1614.4829209291856
48,1624.0104516097574,1624.0104516097574,1624.4010693237549,1640.7539930803064
49,1635.716834797075,1635.716834797075,1641.0243143860455,1661.372159555979
50,1691.424648117686,1691.424648117686,1695.9281586849145,1714.5126486556317
51,1710.4121992914515,1710.4121992914515,1714.5126486556317,1733.9955926686448
52,1722.3585348325273,1722.3585348325273,1737.4517992892663,1750.5345667805318
53,1739.288530250299,1739.288530250299,1750.5345667805318,1764.392364147037
54,1789.4526198896372,1789.4526198896372,1794.7348880527775,1808.6194234479249
55,1803.0685224045362,1803.0685224045362,1808.6194234479249,1826.5585396466622
56,1820.2347766017401,1820.2347766017401,1853.6281788349002,1869.4832159878988
57,1861.4653802949765,1861.4653802949765,1869.4832159878988,1884.3526681407789
58,1914.1603536370715,1914.1603536370715,1914.7568878795832,1928.3996915558544
59,1958.1747647156765,1958.1747647156765,1971.9978885713488,1988.017539167387
60,2001.0993559354706,2001.0993559354706,2003.1084128869857,2020.5526145182941
61,2056.6347267613514,2056.6347267613514,2065.8802702549647,2079.032717179586
62,2094.0881490339866,2094.0881490339866,2100.054963674177,2117.9240107966
63,2152.617095982,2152.617095982,2170.591548056181,2181.3538959117113
64,2174.71406484772,2174.71406484772,2181.3538959117113,2199.671465238798
65,2188.7134336566114,2188.7134336566114,2199.671465238798,2218.7233895245004
66,2225.5145661178262,2225.5145661178262,2230.2255682290056,2246.383296446614
67,2255.5124473592023,2255.5124473592023,2258.3602493886674,2274.9192158213277
68,2308.987382393806,2308.987382393806,2313.100819303525,2323.039796638912
69,2339.638371665209,2339.638371665209,2350.5568349517766,2361.294850584294
70,2394.171094841347,2394.171094841347,2405.5463221505456,2422.325293194475
71,2423.6352277379046,2423.6352277379046,2461.4324709710354,2475.488388089924
72,2449.401278426459,2461.4324709710354,2491.5862007583823,2513.417871073861
73,2470.569969661838,2491.5862007583823,2513.417871073861,2529.1711798015144
74,2490.7273712912047,2512.6808041828567,2529.1711798015144,2543.4828731861426
75,2541.821838175033,2541.821838175033,2567.1078455688594,2580.958006596873
76,2585.8879335476404,2585.8879335476404,2620.6202093473566,2642.5085045570518
77,2627.664163307511,2627.664163307511,2642.5085045570518,2656.3531236637946
78,2668.70824865771,2668.70824865771,2739.2652982623667,2753.863615535759
79,2687.380593599922,2739.2652982623667,2753.863615535759,2773.7828161378625
80,2727.2049570789363,2742.441657916004,2773.7828161378625,2787.742015092221
81,2773.949084404696,2773.949084404696,2787.742015092221,2810.188573771957
82,2788.455717484998,2788.455717484998,2814.916223663412,2825.164209157556
83,2828.1386680885626,2828.1386680885626,2835.5679153178576,2844.4228105075754
84,2848.938299781419,2848.938299781419,2869.6183970078764,2885.692312151349
85,2892.8006085595707,2892.8006085595707,2895.139005328301,2910.5283438915058
86,2930.644158656674,2930.644158656674,2955.518403077125,2971.4812184587718
87,2963.90034579715,2963.90034579715,2991.760009032981,3007.114504832528
88,3020.337970926235,3020.337970926235,3036.0629001303028,3046.5005697439196
89,3039.7156597158237,3039.7156597158237,3047.3065737462925,3056.923147981433
90,3086.3605183554746,3086.3605183554746,3096.407948287589,3113.3332142798267
91,3129.079525828902,3129.079525828902,3129.9255314132206,3146.1911950978183
92,3167.4947796328497,3167.4947796328497,3167.719024570137,3184.419117037079
93,3207.7679455465573,3207.7679455465573,3209.2588165218294,3223.309680016218
94,3265.8246914,3265.8246914,3273.448108335233,3289.457993617324
95,3312.357316521649,3312.357316521649,3327.4496433463446,3348.9600169667056
96,3324.6854746176014,3327.4496433463446,3348.9600169667056,3360.289377657794
97,3377.377427164265,3377.377427164265,3386.9600824058107,3400.655581759641
98,3409.049939087175,3409.049939087175,3409.2016088224163,3422.115559941298
99,3447.6078534767844,3447.6078534767844,3454.987982447582,3473.239939872309
100,3463.1602182154484,3463.1602182154484,3473.239939872309,3482.509370581398
101,3489.8379573280067,3489.8379573280067,3500.5315860261003,3512.7646707241374
102,3502.0681236669116,3502.0681236669116,3522.16574078423,3540.0238091821866
103,3560.052975641495,3560.052975641495,3571.726533385316,3591.022671647078
104,3606.482722801869,3606.482722801869,3607.2263423795657,3625.0735253049497
105,3633.7005595410556,3633.7005595410556,3635.5217348584706,3648.3376649688075
106,3658.285587270956,3658.285587270956,3658.912053843124,3671.360140504106
107,3701.255144969349,3701.255144969349,3704.875817245466,3719.5069195147526
108,3732.696269371627,3732.696269371627,3755.4659688198353,3768.48292163179
109,3782.022986269952,3782.022986269952,3782.9998045851685,3800.999517549967
110,3796.7443943156404,3796.7443943156404,3806.3312681185316,3824.838474944516
111,3822.94669693269,3822.94669693269,3827.591312553003,3845.305664664621
112,3866.287578013624,3866.287578013624,3867.7247679498455,3884.5295625217627
113,3882.025428897551,3882.025428897551,3885.3234832254843,3900.5722279388206
114,3938.8880502898824,3938.8880502898824,3948.610764485385,3961.366625168683
115,3953.055222825026,3953.055222825026,3961.366625168683,3972.0561548852793
116,3974.6295183522634,3974.6295183522634,3986.07158759969,4003.802967886558
117,4004.538566958959,4004.538566958959,4011.7893956814946,4031.857756162144
118,4031.4568360287794,4031.4568360287794,4037.4744993590975,4052.0989490702814
119,4047.36541863899,4047.36541863899,4073.5852766331864,4089.5529386123253
120,4086.7298265808804,4086.7298265808804,4102.31573296448,4121.878660920859
121,4122.453633221751,4122.453633221751,4129.404119215315,4146.74929133678
122,4146.355479798012,4146.355479798012,4157.7489063166295,4170.305659078351
123,4179.4631388229245,4179.4631388229245,4198.1272724028595,4213.324333039028
124,4227.383074590625,4227.383074590625,4228.080056783248,4246.877044600224
125,4285.645285583853,4285.645285583853,4295.6680689855475,4310.211721958382
126,4309.479735818154,4309.479735818154,4313.944696950342,4330.899322364139
127,4328.276194853442,4328.276194853442,4336.3517975014265,4345.011733038372
128,4362.728490748801,4362.728490748801,4369.57295305946,4389.332879682405
129,4395.083834648142,4395.083834648142,4395.531034141153,4404.909474348571
130,4430.987840812894,4430.987840812894,4488.243688197338,4503.891661849534
131,4454.257454366917,4488.243688197338,4503.891661849534,4526.790717703248
132,4505.671267633516,4505.671267633516,4526.790717703248,4543.600967288269
133,4517.931730070708,4517.931730070708,4543.600967288269,4554.932896663776
134,4566.192788175071,4566.192788175071,4589.046581915845,4605.17180023134
135,4604.515743282881,4604.515743282881,4611.380012512762,4628.582275705767
136,4635.059121707271,4635.059121707271,4650.425467623488,4664.939270751656
137,4690.551445784656,4690.551445784656,4704.324735096953,4715.689683067545
138,4736.3011914444005,4736.3011914444005,4740.146808209083,4757.081183982958
139,4786.879674494295,4786.879674494295,4789.546603073785,4809.018766049398
140,4816.588221212993,4816.588221212993,4819.326541173222,4837.644200890537
141,4845.135985525317,4845.135985525317,4854.492309278856,4871.564349828837
142,4868.138727447593,4868.138727447593,4876.592209914094,4889.4872150112315
143,4898.268302205153,4898.268302205153,4945.87744121141,4956.980296257307
144,4909.3778927959875,4945.87744121141,4979.391585970231,4996.56804683188
145,4966.743170394999,4979.391585970231,4996.56804683188,5015.454037482996
146,5014.549503620738,5014.549503620738,5030.095187417983,5049.816793168209
147,5061.551692772117,5061.551692772117,5069.965594403997,5083.489266365473
148,5119.127591359777,5119.127591359777,5122.232760847763,5135.125589062103
149,5154.127138686643,5154.127138686643,5160.67590402346,5180.850817661279
150,5190.596505388683,5190.596505388683,5215.0667635213385,5232.044506646276
151,5221.892955179684,5221.892955179684,5234.740691627737,5250.101941685533
152,5272.602035028735,5272.602035028735,5287.125863556902,5303.911033850358
153,5292.554247973358,5292.554247973358,5303.911033850358,5320.70077709365
154,5304.677772053564,5304.677772053564,5320.70077709365,5340.4641436793345
155,5347.38501837886,5347.38501837886,5359.20074779276,5376.341664561717
156,5401.070147108035,5401.070147108035,5403.613332680399,5415.1774258915675
157,5432.692965075752,5432.692965075752,5461.9527908503815,5472.93570260748
158,5458.809382463104,5461.9527908503815,5483.1649578551,5494.529186912898
159,5478.770054781105,5483.1649578551,5494.529186912898,5514.299456428685
160,5525.688734572071,5525.688734572071,5560.018788272038,5576.422124908506
161,5573.77932803177,5573.77932803177,5582.29525330958,5598.749796515914
162,5631.025479737789,5631.025479737789,5648.365757464772,5667.99453799211
163,5654.291545948173,5654.291545948173,5667.99453799211,5687.70173530426
164,5696.503589588364,5696.503589588364,5727.670498520962,5739.40289699452
165,5744.15131622554,5744.15131622554,5762.7369677733095,5783.143791476939
166,5763.357806993306,5763.357806993306,5783.143791476939,5799.634640820406
167,5778.880419970743,5778.880419970743,5799.634640820406,5811.060324183734
168,5823.87045003117,5823.87045003117,5828.931404484862,5849.004365938062
169,5847.242838637702,5847.242838637702,5849.004365938062,5860.551409618526
170,5862.288425561646,5862.288425561646,5862.4643147965735,5881.689030065649
171,5894.5607573621155,5894.5607573621155,6001.277270118581,6021.8772491668915
172,5907.826121693854,6001.277270118581,6021.8772491668915,6036.049120166657
173,5937.990566290966,6004.046634242357,6036.049120166657,6050.71278422033
174,5994.546274604401,6019.940127672329,6050.71278422033,6062.843961512589
175,6046.136731787852,6046.136731787852,6069.757494595997,6083.88431094311
176,6061.63085356814,6069.757494595997,6095.986944291843,6111.068511203363
177,6118.509445644588,6118.509445644588,6123.00010926122,6138.411635732627
178,6168.030178722613,6168.030178722613,6177.606846618375,6193.356727866474
179,6221.41799847426,6221.41799847426,6221.829761186437,6235.1567815250355
180,6279.248900360904,6279.248900360904,6285.117940533016,6306.321427650024
181,6304.232394087071,6304.232394087071,6306.321427650024,6315.443139670536
182,6323.9490203875575,6323.9490203875575,6334.192751390185,6349.370841121385
183,6346.111781322742,6346.111781322742,6349.370841121385,6367.65746525154
184,6391.952902779642,6391.952902779642,6395.782011001906,6412.408706045146
185,6415.965430446598,6415.965430446598,6415.9990966300975,6428.358442467811
186,6463.763599426683,6463.763599426683,6464.003480953496,6473.205633294199
187,6494.275566446892,6494.275566446892,6503.555629333384,6517.7069834778595
188,6526.604370421709,6526.604370421709,6541.0100708547125,6557.771131126263
189,6554.951290403051,6554.951290403051,6565.271290680528,6579.808827560356
190,6577.675744046318,6577.675744046318,6580.773112872417,6598.6939374891035
191,6602.989716258378,6602.989716258378,6619.28144248151,6631.678312756684
192,6641.746512563402,6641.746512563402,6648.758818620137,6666.440439072642
193,6683.979176798823,6683.979176798823,6713.437327746831,6731.006793145816
194,6708.115275802134,6713.437327746831,6731.006793145816,6751.291709897584
195,6735.214875461422,6735.214875461422,6751.291709897584,6772.563867513511
196,6771.569751747269,6771.569751747269,6782.937610787661,6805.714742773344
197,6816.152520054467,6816.152520054467,6856.774231478893,6873.502858827553
198,6838.929881698917,6856.774231478893,6873.502858827553,6888.421825468145
199,6865.618276182547,6865.618276182547,6911.251787115628,6929.454023717177
200,6891.306071736244,6911.251787115628,6946.640791216766,6961.008989486839
201,6939.903100125746,6946.640791216766,6961.008989486839,6973.9679530865205
202,6981.988478854383,6981.988478854383,6998.887017562885,7018.421485061807
203,7038.403305592374,7038.403305592374,7059.111106860524,7074.1233191995325
204,7079.131765782866,7079.131765782866,7082.222787893131,7094.039663057624
205,7120.655530486728,7120.655530486728,7131.590396632232,7148.657243705328
206,7157.417234780124,7157.417234780124,7165.100401333005,7184.653462422774
207,7198.876102501979,7198.876102501979,7205.243044189289,7213.796348888196
208,7236.287773133759,7236.287773133759,7253.061041545177,7272.1857501980485
209,7284.704991728588,7284.704991728588,7308.203218931231,7320.916386114615
210,7341.14882596402,7341.14882596402,7351.260605110343,7372.418603913608
211,7372.780585481213,7372.780585481213,7380.057661954647,7398.420440746928
212,7385.473779377048,7385.473779377048,7398.420440746928,7414.628680682219
213,7428.682550535645,7428.682550535645,7442.111868820416,7456.666879463699
214,7462.009730288918,7462.009730288918,7463.402451479146,7478.839462970375
215,7510.336526577498,7510.336526577498,7519.376910611408,7536.458297973138
216,7552.62529184732,7552.62529184732,7557.812613901035,7572.701976548671
217,7603.4163817216395,7603.4163817216395,7621.7379663546035,7633.880819356567
218,7654.144177600242,7654.144177600242,7670.026003482011,7686.575533313506
219,7673.688107678499,7673.688107678499,7686.575533313506,7703.2313215490985
220,7694.359160654875,7694.359160654875,7703.2313215490985,7717.627539386979
221,7740.27297414851,7740.27297414851,7746.416585224401,7763.909286762042
222,7770.525786908101,7770.525786908101,7789.432733290586,7803.565052977036
223,7828.632558373682,7828.632558373682,7830.955229591094,7845.618771791872
224,7867.297963579466,7867.297963579466,7868.127312418562,7878.555775638899
225,7912.3043083613275,7912.3043083613275,7915.3059311547195,7935.946796067507
226,7932.787712639658,7932.787712639658,7937.115043778607,7947.962738036961
227,7980.784145593913,7980.784145593913,7999.529554572301,8015.084633475188
228,8035.041416102187,8035.041416102187,8042.666336411276,8059.743618046375
229,8061.750519968517,8061.750519968517,8065.358808172731,8079.6327491445645
230,8119.547127696378,8119.547127696378,8125.778513789501,8141.914943023541
231,8173.437136327449,8173.437136327449,8188.24124640668,8202.397051067705
232,8198.865489753947,8198.865489753947,8202.397051067705,8216.405391437951
233,8233.89135320058,8233.89135320058,8238.951516463403,8252.951150138155
234,8291.304629403734,8291.304629403734,8296.284870610727,8316.824845598321
235,8332.370890706516,8332.370890706516,8332.568641752507,8346.654522801018
236,8372.492650353212,8372.492650353212,8385.856375520993,8400.859556816149
237,8384.636975461946,8385.856375520993,8400.859556816149,8417.516788343744
238,8430.99978658199,8430.99978658199,8439.418502364999,8452.67086407606
239,8481.77783960584,8481.77783960584,8509.717384810245,8525.411685577987
240,8507.512912083603,8509.717384810245,8529.098811887725,8542.530038163137
241,8553.292988388213,8553.292988388213,8575.468139691273,8595.225868488316
242,8564.616019336116,8575.468139691273,8595.225868488316,8613.144284154601
243,8601.89097389509,8601.89097389509,8613.144284154601,8632.059335170738
244,8642.42558378176,8642.42558378176,8644.070026178591,8654.103630004733
245,8661.573221378605,8661.573221378605,8664.938441544231,8679.785105393752
246,8691.265599430411,8691.265599430411,8691.874317924974,8710.44195073326
247,8729.39681956525,8729.39681956525,8732.313061302884,8747.756281814312
248,8768.921679398787,8768.921679398787,8793.883428935977,8811.397568603614
249,8801.210605934019,8801.210605934019,8843.300804019202,8852.192916247655
250,8815.262369829034,8843.300804019202,8852.192916247655,8866.304622240514
251,8827.575786080797,8845.402963273313,8866.304622240514,8873.235269719562
252,8859.785496528739,8862.17707857462,8883.490662670363,8896.52146634818
253,8905.895719548449,8905.895719548449,8933.6376654583,8948.644856565164
254,8943.419014875019,8943.419014875019,8948.644856565164,8959.209209388111
255,8994.194798524593,8994.194798524593,9004.677647554272,9020.129764080772
256,9020.456079331887,9020.456079331887,9022.312907316418,9040.3760061083
257,9062.614821626707,9062.614821626707,9097.722963951372,9116.192735586721
