# file created by code in harbour_fns_1896438.jl
# file created on 2026-03-09 at 15:39:44
# parameter: seed = 1896598
# parameter: T = 30000.0
# parameter: lower_interarrival = 11.0
# parameter: upper_interarrival = 59.0
# parameter: mean_process_times = [11.0, 16.0]
# parameter: max_queue = [9223372036854775807, 4]
# parameter: time_units = hours
id,arrival_time,start_service_times,start_service_times,completion_time
1,0.0,0.0,9.20813466188022,25.149672265564256
2,35.980099517729684,35.980099517729684,36.27305001333849,53.17174081246509
3,48.424730281433625,48.424730281433625,53.17174081246509,70.2720153832723
4,66.4204699009392,66.4204699009392,70.2720153832723,83.60869666116388
5,106.34824561043175,106.34824561043175,107.69895005893252,118.377558979162
6,158.27664412196745,158.27664412196745,165.1890565704965,177.83254770839216
7,176.03103959479566,176.03103959479566,193.16616769031282,210.2362611095157
8,211.19558402011418,211.19558402011418,234.5597552743946,252.76959755316952
9,232.4926713296872,234.5597552743946,252.76959755316952,273.82272020442565
10,283.94412566747496,283.94412566747496,304.3909023374194,318.4206077533542
11,304.60671458459854,304.60671458459854,318.4206077533542,335.13035486717297
12,361.09364955014433,361.09364955014433,388.5480055179448,407.4800191397086
13,389.6050043380338,389.6050043380338,407.4800191397086,422.86648385733383
14,409.4408464367491,409.4408464367491,422.86648385733383,441.01166913904905
15,455.87475493005803,455.87475493005803,456.8552641490192,470.0631976917455
16,481.38552504668814,481.38552504668814,512.1535098255664,529.738377353018
17,521.9909845014788,521.9909845014788,532.3490176477538,543.8381826908418
18,579.5267207273449,579.5267207273449,592.8976325989961,607.6761463126812
19,615.8606313830767,615.8606313830767,627.3342229948211,642.5462728670733
20,669.3463397762699,669.3463397762699,672.9960024532552,687.4979789965295
21,695.639975139444,695.639975139444,701.2107948371702,720.2147018375565
22,731.7525977887881,731.7525977887881,734.5939656298258,753.6125483831205
23,776.8788453624023,776.8788453624023,779.3626489812953,792.7714744597505
24,820.8766516984665,820.8766516984665,829.5574244125235,850.6034474992382
25,858.9446465438812,858.9446465438812,861.6582912959367,876.9006018469178
26,895.4046437087236,895.4046437087236,896.5178300587102,911.0356770876584
27,946.1413172822681,946.1413172822681,955.2450302899027,972.9164503110547
28,997.3649570116232,997.3649570116232,1007.3308637093069,1021.6987186684784
29,1025.3518107577427,1025.3518107577427,1030.342189739699,1040.6992442310086
30,1053.3665778867557,1053.3665778867557,1072.7226474098397,1083.6439838104122
31,1086.9466898138778,1086.9466898138778,1090.4014815159908,1110.0653166903724
32,1142.3100384908107,1142.3100384908107,1145.8848321492062,1166.4038760930516
33,1199.9179882443957,1199.9179882443957,1238.8346132347847,1256.5747134602234
34,1227.0521334376356,1238.8346132347847,1256.5747134602234,1275.8393437187694
35,1247.9660581488224,1247.9660581488224,1275.8393437187694,1294.7437856975394
36,1289.6087223481795,1289.6087223481795,1295.6391882241464,1309.7336685615683
37,1328.6945231606442,1328.6945231606442,1357.129667114765,1371.886015904212
38,1375.4460592522166,1375.4460592522166,1377.7622693569658,1391.2037849139913
39,1425.3329085469513,1425.3329085469513,1426.4117988506437,1440.7529318053844
40,1478.6968677005523,1478.6968677005523,1484.9677337378903,1502.814265803281
41,1492.522754940329,1492.522754940329,1517.0806331021001,1525.9022721681638
42,1509.8373947294774,1517.0806331021001,1533.7284938734679,1547.6279611285827
43,1546.4070670436308,1546.4070670436308,1551.155392020373,1567.5392206256931
44,1590.4825054207777,1590.4825054207777,1606.2795805366472,1621.7850087498687
45,1607.6023148667373,1607.6023148667373,1621.7850087498687,1638.6666602212458
46,1647.0406048156678,1647.0406048156678,1660.2668111278208,1676.9597867392424
47,1684.1922695377268,1684.1922695377268,1693.2116863309543,1708.8822687912284
48,1737.5465351484706,1737.5465351484706,1752.6444886608438,1768.0199759479924
49,1755.2667580663644,1755.2667580663644,1770.830939021832,1785.8717385784666
50,1811.8920913041788,1811.8920913041788,1813.9103574133362,1830.1706767419112
51,1868.2420567500412,1868.2420567500412,1896.2747752341434,1907.782337118403
52,1916.1597638219023,1916.1597638219023,1937.2593427052022,1952.9205140545985
53,1968.5701571655422,1968.5701571655422,2000.4303477489148,2008.8836731377676
54,1984.4180489155467,2000.4303477489148,2008.8836731377676,2025.1991105202349
55,2022.3113733364812,2022.3113733364812,2029.4700056719175,2044.6391846296042
56,2061.8916047285657,2061.8916047285657,2072.0436798443857,2087.731844401622
57,2098.4432541769706,2098.4432541769706,2102.3137983799443,2118.8929504879247
58,2144.8273909334366,2144.8273909334366,2180.0088931944856,2191.713039029613
59,2187.838841076035,2187.838841076035,2191.713039029613,2211.761117146771
60,2200.7458502900668,2200.7458502900668,2218.8434354699743,2233.8904150215626
61,2250.221457155733,2250.221457155733,2290.10566726665,2307.652618370173
62,2283.346534750814,2290.10566726665,2307.652618370173,2322.84489455832
63,2330.3866562371795,2330.3866562371795,2334.5161184077388,2350.5982863570707
64,2385.306539095143,2385.306539095143,2391.2538885637964,2407.5993728225326
65,2416.7551523871534,2416.7551523871534,2427.735306720247,2441.6815891765477
66,2438.7002798217763,2438.7002798217763,2452.295730596363,2470.093151031052
67,2491.567389307089,2491.567389307089,2512.991584748162,2528.8556464532007
68,2529.704627488115,2529.704627488115,2539.0631095499293,2552.705008202945
69,2584.0630732876025,2584.0630732876025,2590.904487799481,2607.7409898966366
70,2629.464216218123,2629.464216218123,2633.6723204009604,2648.486873566511
71,2679.1161818996616,2679.1161818996616,2686.035745115951,2700.222493196072
72,2737.9188873581093,2737.9188873581093,2759.7744819821946,2773.467875706458
73,2785.563463342246,2785.563463342246,2791.911467829927,2810.8843812278456
74,2809.5082700336106,2809.5082700336106,2826.259274348418,2838.797508691454
75,2839.658025281287,2839.658025281287,2876.080004240674,2894.1422597117707
76,2879.5071535291963,2879.5071535291963,2894.1422597117707,2910.585363534054
77,2918.787037339064,2918.787037339064,2922.784844492516,2934.743940499036
78,2954.390580625019,2954.390580625019,2954.7366691955244,2971.437299722323
79,2983.865254296195,2983.865254296195,2990.8233648913697,3011.2120754928133
80,2998.7998690227973,2998.7998690227973,3011.2120754928133,3024.8246451181417
81,3053.1075440606787,3053.1075440606787,3079.3603150778513,3093.158579188122
82,3103.1758283819768,3103.1758283819768,3133.2505701329696,3145.2194528506757
83,3126.452139973741,3133.2505701329696,3158.9160008167037,3178.2145167753215
84,3185.0210792829475,3185.0210792829475,3186.2262132668257,3199.506829915999
85,3204.48593730541,3204.48593730541,3207.8186926546737,3222.0290953795743
86,3216.812687119361,3216.812687119361,3222.0290953795743,3235.3714346701545
87,3229.937230182603,3229.937230182603,3240.4201189003797,3254.137304870907
88,3242.8361696584843,3242.8361696584843,3254.137304870907,3266.839501834256
89,3266.020687713977,3266.020687713977,3274.25477336532,3287.198639989558
90,3309.03777054224,3309.03777054224,3314.2686645548706,3337.577745887306
91,3321.092776944836,3321.092776944836,3343.986127209494,3359.9071852014577
92,3334.3484595680884,3343.986127209494,3359.9071852014577,3375.40986909974
93,3346.190823047185,3346.87596827449,3375.40986909974,3387.9086374726317
94,3378.790470272143,3378.790470272143,3387.9086374726317,3401.8853444052165
95,3393.8582166975893,3393.8582166975893,3432.9057245735253,3451.1634830769153
96,3433.645080888553,3433.645080888553,3451.1634830769153,3468.292817667554
97,3446.4669672345535,3446.4669672345535,3468.292817667554,3487.397726548889
98,3501.5115826519727,3501.5115826519727,3502.1162093008147,3524.372839742374
99,3515.4890357595473,3515.4890357595473,3524.372839742374,3540.6473802584037
100,3534.518738330011,3534.518738330011,3542.1434694981563,3559.3828607623213
101,3560.5138347658426,3560.5138347658426,3581.453913902671,3596.9163657071686
102,3583.2218532771767,3583.2218532771767,3596.9163657071686,3607.9067393566183
103,3626.800214972803,3626.800214972803,3627.292741234248,3644.7839407469637
104,3685.6421791856505,3685.6421791856505,3712.3555875370976,3720.2297635029786
105,3719.961067123099,3719.961067123099,3720.412862452264,3732.9254912154956
106,3774.7132580993234,3774.7132580993234,3801.462309060881,3823.995214921682
107,3819.842446655756,3819.842446655756,3823.995214921682,3836.105731848622
108,3834.4137149329526,3834.4137149329526,3851.3700159874734,3865.7400168865975
109,3871.6285446923926,3871.6285446923926,3872.62782362383,3886.7091120246237
110,3901.8439834108262,3901.8439834108262,3930.4708372099776,3946.830892144195
111,3916.777028526518,3930.4708372099776,3946.830892144195,3958.144324118865
112,3946.3798955757334,3946.3798955757334,3966.9238359650963,3981.564203698393
113,3985.8950490239004,3985.8950490239004,3994.4851409228663,4009.940098984133
114,4035.7173134639274,4035.7173134639274,4037.6425252647828,4052.437904669005
115,4047.4935688196406,4047.4935688196406,4054.899690220794,4074.085662121889
116,4076.4634258227484,4076.4634258227484,4078.8662635746646,4093.635827066188
117,4096.410859252836,4096.410859252836,4098.282052218075,4114.535110499369
118,4129.188303544862,4129.188303544862,4130.151456841222,4145.8664814880885
119,4146.3544126064235,4146.3544126064235,4174.320337934288,4191.028324233144
120,4201.436950047051,4201.436950047051,4203.8346310961515,4219.357152606674
121,4242.295446905834,4242.295446905834,4243.600758215788,4262.542888178594
122,4280.822695924861,4280.822695924861,4289.193561360089,4301.994635170436
123,4317.106323347312,4317.106323347312,4317.62705846735,4331.31783517414
124,4351.987532265304,4351.987532265304,4355.834069224428,4373.587692165581
125,4404.442244994164,4404.442244994164,4406.004124339664,4425.50555464003
126,4428.08698670927,4428.08698670927,4428.815705885476,4443.50874113272
127,4469.533395768178,4469.533395768178,4488.128536836681,4499.208666513285
128,4486.70831431458,4488.128536836681,4500.135315830483,4517.953321080017
129,4536.689844458837,4536.689844458837,4542.180702355517,4553.846696839267
130,4594.329385764516,4594.329385764516,4596.733743799454,4616.639137233201
131,4629.633065743916,4629.633065743916,4631.167267429544,4643.772926702305
132,4657.760276916653,4657.760276916653,4684.056424188116,4697.103722554521
133,4688.202545233321,4688.202545233321,4697.103722554521,4714.1689805303395
134,4720.055782711872,4720.055782711872,4726.0090007079625,4744.202111834601
135,4734.863309371234,4734.863309371234,4744.202111834601,4761.712717860726
136,4757.946941702362,4757.946941702362,4791.832494822838,4810.172615593306
137,4786.017758088227,4791.832494822838,4810.172615593306,4827.89838784823
138,4843.154141528164,4843.154141528164,4858.372273728722,4880.880763501917
139,4880.801107348441,4880.801107348441,4887.973037196181,4906.576305371022
140,4915.891542742719,4915.891542742719,4918.709483406112,4933.618655080812
141,4944.847056405365,4944.847056405365,4955.56386752333,4972.878738956438
142,4975.240094452468,4975.240094452468,4990.568362125316,5002.146673182511
143,5000.927642174026,5000.927642174026,5034.620381382299,5053.734718768922
144,5034.372758724905,5034.620381382299,5053.734718768922,5076.027948353466
145,5054.248579661281,5054.248579661281,5076.027948353466,5093.361214149528
146,5065.866573595656,5070.757645328702,5093.361214149528,5103.378183641936
147,5108.422177138614,5108.422177138614,5111.332137388698,5127.0021564317285
148,5128.0606564113,5128.0606564113,5132.749943738013,5156.153274826075
149,5161.01596929789,5161.01596929789,5167.7116522747,5185.609964505774
150,5214.953603161981,5214.953603161981,5225.167159051104,5238.287155070601
151,5272.943374536943,5272.943374536943,5276.110813634273,5288.634794523959
152,5295.028053133241,5295.028053133241,5297.305076013745,5314.49195015962
153,5312.33762140808,5312.33762140808,5331.12651894223,5352.426330444484
154,5357.660258846367,5357.660258846367,5371.634449032674,5389.070909194117
155,5381.767902800493,5381.767902800493,5389.070909194117,5399.824683020275
156,5409.744131838891,5409.744131838891,5427.712579408699,5441.110045046966
157,5464.776527747902,5464.776527747902,5479.342449052553,5496.346217438081
158,5513.207136921157,5513.207136921157,5519.892629907166,5531.629189347605
159,5562.814088669006,5562.814088669006,5572.351287910574,5586.879735243682
160,5604.104032089911,5604.104032089911,5627.077547434856,5646.514690009977
161,5621.561571207024,5627.077547434856,5646.514690009977,5662.844464752686
162,5647.160319844005,5647.160319844005,5689.607587577865,5706.246125619578
163,5699.754563689045,5699.754563689045,5706.246125619578,5722.847479283491
164,5757.806666580201,5757.806666580201,5767.16938210765,5781.203607317799
165,5804.638913818498,5804.638913818498,5805.352488545619,5819.109366352784
166,5826.553710529418,5826.553710529418,5834.063891855993,5850.305865474415
167,5881.829414433803,5881.829414433803,5882.238139220051,5897.9153338310425
168,5914.230674706096,5914.230674706096,5927.9575510885,5945.773370674527
169,5954.376602431044,5954.376602431044,5957.748761427646,5973.526952305916
170,5989.524397224108,5989.524397224108,6000.62229367391,6019.750721615538
171,6045.035645182458,6045.035645182458,6066.837014286467,6086.301025012138
172,6074.221548316539,6074.221548316539,6086.301025012138,6101.102443665277
173,6085.8259378598095,6085.8259378598095,6101.102443665277,6120.61793035032
174,6120.0567360205405,6120.0567360205405,6167.795243337477,6185.263394948368
175,6155.22766470147,6167.795243337477,6185.263394948368,6196.56251522791
176,6185.589046426628,6185.589046426628,6196.56251522791,6212.429790126733
177,6209.18116848741,6209.18116848741,6212.429790126733,6230.738717320322
178,6236.439352407572,6236.439352407572,6242.60045565079,6260.616385411697
179,6249.9819924198355,6249.9819924198355,6260.616385411697,6279.838577269032
180,6265.908578541657,6265.908578541657,6279.838577269032,6299.241505788286
181,6317.838771428767,6317.838771428767,6345.426291922587,6362.9649035454495
182,6350.1804441182785,6350.1804441182785,6362.9649035454495,6376.529862308712
183,6376.972768588261,6376.972768588261,6385.266080195357,6402.301202554359
184,6398.364575875629,6398.364575875629,6405.124431230229,6422.395644728645
185,6433.752468845942,6433.752468845942,6437.155259189634,6448.144097492419
186,6450.067165710611,6450.067165710611,6450.9235747583125,6461.761153740498
187,6505.084355013957,6505.084355013957,6532.444316850829,6548.677617268791
188,6543.252390274325,6543.252390274325,6550.347370645596,6565.024133104084
189,6599.662825380358,6599.662825380358,6617.740236642353,6632.436935229459
190,6614.098888572341,6617.740236642353,6632.436935229459,6645.548972535865
191,6627.36099376722,6627.36099376722,6649.079134076894,6666.302297833424
192,6677.028604090543,6677.028604090543,6680.589792010278,6698.565626668228
193,6727.7167487527895,6727.7167487527895,6728.857669351346,6745.112562702283
194,6757.307780813027,6757.307780813027,6762.668804360523,6779.656495784594
195,6793.544821178258,6793.544821178258,6798.672447305441,6813.209477301265
196,6829.392216875884,6829.392216875884,6833.545914420619,6846.923006137799
197,6855.556427587803,6855.556427587803,6862.068443253175,6879.925069345228
198,6907.740577180432,6907.740577180432,6919.841016618691,6937.175873188588
199,6953.22270856781,6953.22270856781,6964.965284082426,6981.820029872473
200,6974.121685687658,6974.121685687658,6981.820029872473,6995.638507916709
201,6995.992629818671,6995.992629818671,7048.776888042098,7064.069221459906
202,7046.132537100223,7048.776888042098,7071.064315683098,7086.361597093111
203,7063.190044186884,7071.064315683098,7086.361597093111,7098.536055437581
204,7084.928705045423,7084.928705045423,7124.45967200011,7141.931871888752
205,7102.075611082856,7124.45967200011,7150.580313287526,7168.016390789916
206,7134.023992655805,7150.580313287526,7168.016390789916,7184.230235454777
207,7180.278596257151,7180.278596257151,7192.866586064893,7210.884843382799
208,7231.2184154001325,7231.2184154001325,7242.185304460051,7258.180807724421
209,7265.619286719566,7265.619286719566,7270.983614904974,7289.304833226805
210,7314.342434940476,7314.342434940476,7323.507412424354,7339.285854375834
211,7329.561129455544,7329.561129455544,7341.394233359049,7362.780532107356
212,7387.057096137577,7387.057096137577,7387.865014904834,7404.869927010798
213,7405.998487307922,7405.998487307922,7408.979979387233,7425.837189936213
214,7458.363653507645,7458.363653507645,7459.175785798338,7470.499366468111
215,7473.619813077002,7473.619813077002,7498.316300889066,7506.848365796854
216,7489.8198868796135,7498.316300889066,7507.855502593505,7526.1202516832045
217,7537.985295540856,7537.985295540856,7542.986902027261,7557.886094603205
218,7578.473132181976,7578.473132181976,7583.33806448411,7598.661060833495
219,7610.846376424158,7610.846376424158,7613.243767510501,7629.31708173945
220,7644.621684833212,7644.621684833212,7644.971000868299,7658.273874503816
221,7656.018606097023,7656.018606097023,7659.039339583237,7674.616830318007
222,7703.968854773903,7703.968854773903,7723.095300718987,7741.568337081171
223,7749.776375435301,7749.776375435301,7775.6052758711385,7796.519158253264
224,7784.133769046282,7784.133769046282,7796.519158253264,7809.098896541404
225,7826.0201370008135,7826.0201370008135,7835.5233844990635,7853.3067597634645
226,7864.756750054882,7864.756750054882,7869.604113639278,7884.809371520571
227,7909.706970795804,7909.706970795804,7910.720052284095,7932.936054527539
228,7968.453313717856,7968.453313717856,7971.967355247228,7996.74537877731
229,7992.855442826418,7992.855442826418,7996.74537877731,8014.012828840958
230,8037.435067210182,8037.435067210182,8058.769263056285,8074.47093970304
231,8072.804930964013,8072.804930964013,8077.252814642732,8096.94877501353
232,8131.132916921408,8131.132916921408,8141.161552780521,8160.771673772214
233,8174.782102041927,8174.782102041927,8178.793209425935,8192.601608919435
234,8220.700195416479,8220.700195416479,8230.466140572182,8249.582195232684
235,8270.434038495256,8270.434038495256,8281.976112188506,8296.417216573218
236,8310.945959572027,8310.945959572027,8315.25723357897,8331.510783271675
237,8337.108125849372,8337.108125849372,8344.606416084844,8358.6538631971
238,8352.163614709023,8352.163614709023,8366.533151699941,8382.768715032209
239,8400.162991215208,8400.162991215208,8412.849423008105,8431.746945925464
240,8446.640436889602,8446.640436889602,8453.709146709876,8472.942405789367
241,8483.199124460416,8483.199124460416,8487.271750489506,8502.473342148585
242,8504.590381883934,8504.590381883934,8505.325421245972,8521.48002709614
243,8549.298078038355,8549.298078038355,8560.4363446275,8577.549570442847
244,8560.886757957838,8560.886757957838,8592.146548677809,8603.850987159289
245,8581.172939138338,8592.146548677809,8603.850987159289,8619.883335151077
246,8617.353999607334,8617.353999607334,8620.112585335128,8636.53395734676
247,8663.823082071965,8663.823082071965,8678.411754529518,8694.665212846678
248,8714.55167012464,8714.55167012464,8736.012118137774,8748.72116867504
249,8728.885994471353,8736.012118137774,8748.72116867504,8762.309254096901
250,8769.314981879033,8769.314981879033,8776.179560157063,8792.169057473106
251,8801.397975155574,8801.397975155574,8810.06435540182,8827.119047164162
252,8813.440389898742,8813.440389898742,8832.492567128149,8848.891163246175
253,8842.88313793669,8842.88313793669,8851.82299149856,8868.981905004859
254,8860.146228262478,8860.146228262478,8868.981905004859,8885.620366118359
255,8886.949489405066,8886.949489405066,8891.698656885626,8908.269300046903
256,8918.255341187669,8918.255341187669,8935.300063343719,8946.915647983948
