# file created by code in harbour_fns_1896438.jl
# file created on 2026-03-09 at 15:39:37
# parameter: seed = 1896488
# parameter: T = 30000.0
# parameter: lower_interarrival = 11.0
# parameter: upper_interarrival = 59.0
# parameter: mean_process_times = [11.0, 16.0]
# parameter: max_queue = [9223372036854775807, 4]
# parameter: time_units = hours
id,arrival_time,start_service_times,start_service_times,completion_time
1,0.0,0.0,6.191013649288456,23.601983536305376
2,40.09495893001597,40.09495893001597,52.35057449619386,64.1897860984146
3,90.00818470242417,90.00818470242417,96.74223177818894,117.8635641459413
4,129.11653749158154,129.11653749158154,167.4284769166853,178.59872894824474
5,150.95701530680282,167.4284769166853,188.19637742200143,205.2409770178676
6,196.9600613239474,196.9600613239474,207.81182731131776,222.93079561395749
7,252.7462368580263,252.7462368580263,254.70415916985752,274.4671161426832
8,287.7591993328757,287.7591993328757,296.3218730568748,309.7490524151839
9,330.69966731600505,330.69966731600505,345.4118160630171,364.6104816337884
10,382.23897823649895,382.23897823649895,386.74138276783475,396.4732163519217
11,427.07607172863885,427.07607172863885,436.82552478764103,453.1452855235514
12,453.5667098697138,453.5667098697138,456.647296826984,473.00446081381864
13,486.8119214812659,486.8119214812659,508.1272249157647,527.4301003329085
14,510.27027201145427,510.27027201145427,527.4301003329085,546.2583738078424
15,559.8215963785318,559.8215963785318,590.5885521715043,605.1204065690099
16,591.1341235962495,591.1341235962495,610.0836130924674,628.6325261014981
17,645.9891901236283,645.9891901236283,653.6149374311008,668.9201559579233
18,685.6163099865769,685.6163099865769,693.6715120755118,703.345472219873
19,735.5030676311826,735.5030676311826,740.7504530661133,757.5198651789503
20,794.4594323451927,794.4594323451927,816.5854092813771,826.7921919322505
21,826.1003658846071,826.1003658846071,835.8800869733558,850.3465626029154
22,839.0993340686063,839.0993340686063,850.3465626029154,865.7888895107841
23,854.0905067240271,854.0905067240271,865.7888895107841,884.8327521794495
24,893.6948234740261,893.6948234740261,894.1852770661925,909.9317920004019
25,916.1481009823591,916.1481009823591,920.6021910804853,936.432554191074
26,967.0347885618105,967.0347885618105,996.1634725060036,1008.6330374290646
27,979.0703859539211,996.1634725060036,1016.3899553784003,1031.7527358540694
28,1030.2338913049102,1030.2338913049102,1038.2527637886117,1059.4762220622843
29,1049.3053206457525,1049.3053206457525,1059.4762220622843,1071.8257765299993
30,1093.1628269082792,1093.1628269082792,1102.0653371542858,1118.7254539306548
31,1104.343427172569,1104.343427172569,1127.6968682888194,1146.9240663290977
32,1152.4725352038681,1152.4725352038681,1156.0890838543535,1165.469964116209
33,1211.2420323258439,1211.2420323258439,1229.1690140806124,1242.1307733047397
34,1259.5077713403225,1259.5077713403225,1263.8666700397678,1276.929524010067
35,1301.2367278465676,1301.2367278465676,1305.7745951895088,1322.7432283171458
36,1351.7919658564995,1351.7919658564995,1378.2957898792483,1391.1709011448263
37,1395.2621196724265,1395.2621196724265,1404.3500181298532,1422.5034854963499
38,1438.1937858917818,1438.1937858917818,1456.023575119613,1474.1829615793029
39,1453.2903034493997,1456.023575119613,1474.1829615793029,1487.2527654549967
40,1470.821014468248,1470.821014468248,1487.2527654549967,1506.9347011588118
41,1523.8776256865244,1523.8776256865244,1529.0603722378194,1545.0901511267168
42,1566.8864787213304,1566.8864787213304,1569.2449551120872,1586.91640864632
43,1612.0890754974864,1612.0890754974864,1623.7089492693244,1645.524685537421
44,1662.6575925376487,1662.6575925376487,1687.6566364099558,1707.6647441158038
45,1679.31872773032,1687.6566364099558,1707.6647441158038,1723.9921513187842
46,1701.843990566446,1701.843990566446,1723.9921513187842,1739.7851800922513
47,1754.141531355972,1754.141531355972,1782.2800790406104,1795.39328682495
48,1782.5130474639934,1782.5130474639934,1795.39328682495,1817.7667585790957
49,1812.369489546033,1812.369489546033,1817.7667585790957,1834.411326926005
50,1856.0466590898982,1856.0466590898982,1868.5885507331925,1881.6574577592855
51,1867.7970004712654,1868.5885507331925,1881.6574577592855,1892.9320807750591
52,1884.130561550996,1884.130561550996,1892.9320807750591,1907.7508854681037
53,1901.26687176165,1901.26687176165,1907.7508854681037,1924.80976353905
54,1918.3169358199118,1918.3169358199118,1940.238608632773,1954.4344782774588
55,1935.466437937029,1940.238608632773,1968.6959341184076,1980.6015365196345
56,1983.9464208273632,1983.9464208273632,1996.9546163244204,2013.6511251519262
57,2021.0386856990574,2021.0386856990574,2021.0846407125327,2037.721472938867
58,2043.5199730624604,2043.5199730624604,2045.1566751026403,2054.317891816023
59,2061.138431265484,2061.138431265484,2077.7255047193603,2094.714531073722
60,2091.7772079114493,2091.7772079114493,2103.6311748979215,2120.9206261785357
61,2108.1323626543526,2108.1323626543526,2120.9206261785357,2138.2817594608
62,2119.3341617685446,2119.3341617685446,2138.2817594608,2151.409699375773
63,2174.0673324692793,2174.0673324692793,2194.9915786464576,2214.9386929481143
64,2232.367222825079,2232.367222825079,2258.536024601812,2273.636709218882
65,2251.0650228272907,2258.536024601812,2273.636709218882,2291.6502220834263
66,2295.566485588954,2295.566485588954,2301.3005541802454,2317.8258897244045
67,2325.006714899596,2325.006714899596,2327.034506473406,2345.000416699359
68,2376.9869921651266,2376.9869921651266,2381.774037795468,2404.201606812778
69,2419.6707519510396,2419.6707519510396,2438.0084814671745,2448.8266167404654
70,2433.403060476606,2438.0084814671745,2449.6539281511677,2465.6965587492246
71,2491.678126934835,2491.678126934835,2492.448712497976,2507.976319644655
72,2527.562131399372,2527.562131399372,2528.7906069416804,2546.205649927095
73,2574.581297597404,2574.581297597404,2584.071770657163,2598.2661123770017
74,2614.321537227607,2614.321537227607,2620.286830285034,2635.9223307612087
75,2662.1380858557163,2662.1380858557163,2674.5370148412508,2690.220881477043
76,2679.206367835156,2679.206367835156,2721.3421110838453,2737.0478629532204
77,2716.0583758278703,2721.3421110838453,2740.009776134098,2751.6261627726735
78,2747.955759541415,2747.955759541415,2751.6261627726735,2766.72906911487
79,2788.3842672220367,2788.3842672220367,2801.5749979497846,2813.7302390745717
80,2804.7875821103253,2804.7875821103253,2813.7302390745717,2832.080059095459
81,2839.512559906056,2839.512559906056,2843.150688415335,2859.8539813529574
82,2885.1084734997153,2885.1084734997153,2902.874701587695,2921.918588112701
83,2936.5360961931406,2936.5360961931406,2938.188177801509,2959.435324954866
84,2990.6295435459097,2990.6295435459097,2994.169157389378,3011.7028517188837
85,3047.131637458801,3047.131637458801,3098.998081456491,3116.0816588014536
86,3094.6870150767354,3098.998081456491,3124.044325493297,3137.6324179609587
87,3122.4763838352687,3124.044325493297,3137.6324179609587,3155.824628551549
88,3159.422802064395,3159.422802064395,3159.9069085345072,3171.672466334076
89,3182.773390284737,3182.773390284737,3192.729708266471,3208.756066730563
90,3240.977966759483,3240.977966759483,3244.3319772516525,3257.314445088678
91,3280.171762842657,3280.171762842657,3288.783542646186,3302.8579875276714
92,3316.803298217619,3316.803298217619,3318.77762869251,3334.234734041492
93,3364.1173010753146,3364.1173010753146,3387.7485719270867,3400.5247615890103
94,3412.2869515668076,3412.2869515668076,3435.762997698642,3454.2794199005443
95,3469.159494780844,3469.159494780844,3472.1271868257536,3492.3338968946928
96,3520.8333603123688,3520.8333603123688,3521.0095587051833,3541.8934081967373
97,3545.6753472428745,3545.6753472428745,3549.042590044271,3564.0010969865175
98,3577.148425923879,3577.148425923879,3590.3438526092486,3613.556600039565
99,3620.847739399675,3620.847739399675,3635.990244118142,3653.0981960261465
100,3649.5298173426327,3649.5298173426327,3655.046575951857,3672.5698225712736
101,3681.8306304011676,3681.8306304011676,3684.4001070134527,3695.4465587148898
102,3732.272424541233,3732.272424541233,3734.5195735666675,3751.439236152991
103,3780.804850755619,3780.804850755619,3784.342396706985,3797.775374592724
104,3824.684327423645,3824.684327423645,3827.200895258532,3845.8499628096133
105,3836.325348341794,3836.325348341794,3857.0458171731902,3873.4531797434124
106,3875.3045357277374,3875.3045357277374,3885.713231134579,3905.425328019089
107,3921.789869658428,3921.789869658428,3925.03481290363,3943.3233882969357
108,3966.2546504540883,3966.2546504540883,3973.7374707780486,3992.5233302381057
109,3997.950083378566,3997.950083378566,3998.475894462534,4015.167340412993
110,4021.7966975894574,4021.7966975894574,4028.928729078978,4043.760935160046
111,4050.957648229284,4050.957648229284,4053.2936953094645,4068.6621028757027
112,4108.832554137749,4108.832554137749,4115.514186162479,4128.770628090644
113,4142.291840885211,4142.291840885211,4179.26451827131,4189.9656567445145
114,4155.224055545228,4179.26451827131,4189.9656567445145,4203.8676756853865
115,4175.24271425153,4182.909775921098,4203.8676756853865,4220.432560347635
116,4221.824235902098,4221.824235902098,4222.222505486311,4240.348621933053
117,4240.3383104562945,4240.3383104562945,4242.167860257426,4261.506974830795
118,4288.622409738501,4288.622409738501,4288.718659653215,4303.869036107164
119,4307.853324919793,4307.853324919793,4322.1945032578105,4339.283767812937
120,4347.974363452399,4347.974363452399,4352.514474855998,4368.0744236055325
121,4375.441027793591,4375.441027793591,4401.4457540044305,4415.093506621564
122,4427.549992911549,4427.549992911549,4459.480235554849,4475.2904816196515
123,4443.693276805293,4459.480235554849,4475.2904816196515,4493.991808794576
124,4477.394566466742,4477.394566466742,4493.991808794576,4510.081198395739
125,4527.251095554633,4527.251095554633,4552.4844069995215,4572.684343110147
126,4582.249168352412,4582.249168352412,4587.27087339356,4604.518081388049
127,4625.206606050337,4625.206606050337,4626.4051103111215,4642.237654773394
128,4676.717621334971,4676.717621334971,4678.869493063385,4696.4864929099
129,4713.987800075213,4713.987800075213,4716.362758456472,4730.403501097796
130,4740.33330098734,4740.33330098734,4767.52817621507,4782.088741427595
131,4754.134426342626,4767.52817621507,4782.088741427595,4799.358897109521
132,4772.590227482347,4775.860822060278,4799.358897109521,4817.300533432376
133,4817.111368658904,4817.111368658904,4854.050095788537,4867.459597903042
134,4874.078963290118,4874.078963290118,4875.892147445876,4891.344852603457
135,4908.895457016372,4908.895457016372,4930.956877825269,4941.548603433308
136,4947.87193230402,4947.87193230402,4973.837851177117,4991.15501338931
137,4981.526061010188,4981.526061010188,4991.15501338931,5012.755089454755
138,5032.021782299756,5032.021782299756,5036.26491402465,5050.426485123026
139,5048.107429557941,5048.107429557941,5050.426485123026,5065.401176994185
140,5061.440025123616,5061.440025123616,5075.857506954241,5093.084618986763
141,5073.842945266202,5075.857506954241,5093.084618986763,5112.853312470625
142,5129.592935099786,5129.592935099786,5137.118791082734,5154.682972811735
143,5171.443994600677,5171.443994600677,5180.059556387053,5201.4341058324
144,5219.989620433657,5219.989620433657,5233.768057733716,5247.709436930634
145,5273.425531538267,5273.425531538267,5274.78456086301,5296.042596101274
146,5327.4833708331425,5327.4833708331425,5329.6031367718615,5343.388085218453
147,5361.353548183237,5361.353548183237,5362.603290906491,5376.516651018164
148,5382.455487201754,5382.455487201754,5391.48608369943,5407.721662585554
149,5400.640380869957,5400.640380869957,5426.132574895945,5438.7566411765865
150,5423.620544620028,5426.132574895945,5438.7566411765865,5454.589793900866
151,5460.611708773076,5460.611708773076,5474.103158787858,5489.022234457271
152,5482.4013956493745,5482.4013956493745,5491.288637678855,5506.374912752637
153,5514.4951419492045,5514.4951419492045,5516.256526339686,5534.29364342649
154,5562.037304055989,5562.037304055989,5567.094420050796,5585.720875975909
155,5605.091979314167,5605.091979314167,5625.53076281793,5640.81158102679
156,5664.005559361432,5664.005559361432,5685.9068248002195,5700.461614263284
157,5712.041412445329,5712.041412445329,5729.396058187305,5746.430358945158
158,5727.65143517248,5729.396058187305,5746.430358945158,5763.163292356311
159,5745.565159476642,5745.565159476642,5763.163292356311,5777.7213605245815
160,5789.885432833859,5789.885432833859,5802.7193873762835,5815.776505703725
161,5814.047873187475,5814.047873187475,5834.407558211904,5849.348879662349
162,5840.80320153608,5840.80320153608,5849.348879662349,5865.279898176886
163,5896.654239316666,5896.654239316666,5909.013897021428,5929.563301827453
164,5919.3895258859775,5919.3895258859775,5929.563301827453,5949.202865775991
165,5936.955671892936,5936.955671892936,5949.202865775991,5966.300283016588
166,5964.442362179824,5964.442362179824,5972.4000619362805,5993.625475745025
167,6019.222336397503,6019.222336397503,6022.505527926834,6037.408670054041
168,6030.880431858729,6030.880431858729,6037.408670054041,6047.704974248838
169,6066.177164548309,6066.177164548309,6075.030588327934,6092.9800938616345
170,6123.661618671212,6123.661618671212,6135.915284473293,6153.464831669512
171,6139.052503614178,6139.052503614178,6153.464831669512,6175.089482506311
172,6177.795405976081,6177.795405976081,6180.179999365508,6195.266991645246
173,6232.093206912126,6232.093206912126,6275.09052348981,6291.75968888007
174,6276.678713660456,6276.678713660456,6291.75968888007,6310.530926221458
175,6288.574026212129,6288.574026212129,6310.530926221458,6320.893782917953
176,6319.750063374624,6319.750063374624,6335.817597911843,6344.218879426181
177,6355.101436866218,6355.101436866218,6377.565202759455,6389.946205926104
178,6411.30832160533,6411.30832160533,6413.6650139092035,6425.815442218657
179,6453.337414078627,6453.337414078627,6468.330786005246,6486.163796157046
180,6482.544214651702,6482.544214651702,6486.163796157046,6501.867658407997
181,6513.307780492611,6513.307780492611,6518.306676133426,6535.971835535893
182,6569.573130730624,6569.573130730624,6576.286422271895,6590.3620298420665
183,6618.3360685040225,6618.3360685040225,6624.061228907887,6639.106926680317
184,6676.827416690954,6676.827416690954,6700.717595487785,6717.935534577286
185,6728.424809784358,6728.424809784358,6742.836072022809,6760.118467205531
186,6759.962276493008,6759.962276493008,6783.500876556597,6807.6408080678175
187,6773.563694204601,6783.500876556597,6807.6408080678175,6821.812938270182
188,6791.31854032238,6791.31854032238,6821.812938270182,6835.868925131579
189,6815.046610368532,6815.046610368532,6835.868925131579,6853.243511800976
190,6859.221128583554,6859.221128583554,6866.372763098189,6884.915376819337
191,6911.060571425065,6911.060571425065,6915.044612345658,6927.524468654035
192,6931.040355568088,6931.040355568088,6946.523473015091,6960.632656965009
193,6958.499109437454,6958.499109437454,6992.508088740708,7006.133160077569
194,6984.12149814433,6992.508088740708,7007.640933341355,7024.229144698066
195,7028.132362091854,7028.132362091854,7030.879432327254,7049.152592358382
196,7074.827910519035,7074.827910519035,7076.856216480454,7085.708718406212
197,7121.911332677562,7121.911332677562,7128.734005029445,7146.972870258832
198,7155.012174596895,7155.012174596895,7198.695882053674,7214.7667957943495
199,7213.489769672635,7213.489769672635,7227.018831244397,7244.964501725436
200,7236.059632210934,7236.059632210934,7244.964501725436,7260.553721111873
201,7267.3924642089605,7267.3924642089605,7270.989647700951,7282.212061816294
202,7294.749033286202,7294.749033286202,7297.316140411213,7314.994207336487
203,7351.436664541864,7351.436664541864,7356.84283323109,7372.55814645473
204,7378.126995193845,7378.126995193845,7378.600614503727,7395.045190999852
205,7425.4201956493325,7425.4201956493325,7429.9593368357955,7443.784356048352
206,7444.590026284821,7444.590026284821,7455.706703135154,7474.142438977183
207,7498.481724672023,7498.481724672023,7500.933955605943,7520.7060518401
208,7525.749079418203,7525.749079418203,7556.4823216053555,7568.554536232856
209,7548.75371442488,7556.4823216053555,7568.554536232856,7586.872760326603
210,7569.641954069687,7569.641954069687,7586.872760326603,7601.907397090828
211,7617.990873831078,7617.990873831078,7623.456905017609,7647.302406291744
212,7663.085026560178,7663.085026560178,7676.936216446296,7695.8867768573955
213,7713.995440326773,7713.995440326773,7720.372563666422,7743.529237259405
214,7744.2468529244825,7744.2468529244825,7746.885780374179,7757.957602263963
215,7787.037266362,7787.037266362,7791.23489264866,7808.539534672032
216,7802.449255413879,7802.449255413879,7808.539534672032,7820.973536735777
217,7822.0935938325465,7822.0935938325465,7824.984144137923,7849.613677374564
218,7838.206171092269,7838.206171092269,7870.689379862691,7882.548057209963
219,7861.72130394133,7870.689379862691,7882.548057209963,7894.394220293919
220,7874.148767728448,7874.148767728448,7894.394220293919,7914.508121721613
221,7921.301541320647,7921.301541320647,7933.393704089858,7950.955313042145
222,7943.460034694098,7943.460034694098,7950.955313042145,7968.458784664384
223,7980.0531033274465,7980.0531033274465,7981.749580420545,7996.378382014288
224,7993.108063113491,7993.108063113491,8000.766574622533,8018.00441039794
225,8024.716340217482,8024.716340217482,8036.783097687587,8057.6447327516435
226,8076.634847665313,8076.634847665313,8094.766671386545,8110.495216600507
227,8107.732386209468,8107.732386209468,8110.495216600507,8126.639370777043
228,8122.901138769027,8122.901138769027,8131.055110810605,8148.713826227659
229,8157.156262233726,8157.156262233726,8164.397150837577,8183.294900348387
230,8209.8535228343,8209.8535228343,8235.022510074285,8247.505067318376
231,8267.998884794844,8267.998884794844,8292.146560862822,8308.259605773479
232,8302.409511566846,8302.409511566846,8310.458603651114,8328.563112528844
233,8316.505648051405,8316.505648051405,8328.563112528844,8341.668901642142
234,8367.812428044672,8367.812428044672,8374.223078761157,8387.258357220733
235,8422.199849087827,8422.199849087827,8431.03059418416,8446.331404111892
236,8452.071942055778,8452.071942055778,8456.506238918584,8474.78204999288
237,8474.821145350785,8474.821145350785,8477.048799061407,8489.06103834457
238,8500.607546769752,8500.607546769752,8546.137727260188,8561.943465047914
239,8550.914723669328,8550.914723669328,8567.88259352304,8579.44082005394
240,8597.856047723835,8597.856047723835,8598.797870649649,8615.555808697507
241,8643.358448376834,8643.358448376834,8652.378113521894,8669.07296158207
242,8660.094269948248,8660.094269948248,8669.07296158207,8678.189809792384
243,8703.76456008417,8703.76456008417,8733.720059562413,8750.46626181304
244,8758.933552589844,8758.933552589844,8778.43858195824,8792.58930400099
245,8783.317723047787,8783.317723047787,8792.58930400099,8807.76830344623
246,8813.185380716483,8813.185380716483,8819.5440019361,8835.05674751588
247,8867.903845723376,8867.903845723376,8881.799947318203,8899.28179573625
248,8885.53236177215,8885.53236177215,8902.299271258527,8917.101981192023
249,8918.732365201195,8918.732365201195,8924.21382676103,8939.388256419252
250,8962.946973372593,8962.946973372593,9015.552646662803,9030.394037977521
251,8976.053084706782,9015.552646662803,9030.394037977521,9045.165251095279
252,9008.73019152645,9016.314738240708,9045.165251095279,9060.582175286032
253,9038.297371088938,9038.297371088938,9060.582175286032,9081.321299019022
254,9088.629349028988,9088.629349028988,9091.400933375566,9102.70078237828
255,9111.160291495362,9111.160291495362,9121.57572671038,9137.209463235127
256,9155.410217539842,9155.410217539842,9158.82724007371,9169.223995657745
257,9178.13015251826,9178.13015251826,9189.989748995182,9205.913845613306
