# file created by code in harbour_fns_1896438.jl
# file created on 2026-03-09 at 15:39:46
# parameter: seed = 1896614
# parameter: T = 30000.0
# parameter: lower_interarrival = 11.0
# parameter: upper_interarrival = 59.0
# parameter: mean_process_times = [11.0, 16.0]
# parameter: max_queue = [9223372036854775807, 4]
# parameter: time_units = hours
id,arrival_time,start_service_times,start_service_times,completion_time
1,0.0,0.0,17.584194581524084,38.13346948770332
2,47.599756330488034,47.599756330488034,57.86100454412137,77.42456999756571
3,58.958046002016815,58.958046002016815,77.42456999756571,100.0427660772054
4,91.33740552411848,91.33740552411848,118.85484487976336,132.3911260669645
5,142.62333365459597,142.62333365459597,149.97587976684613,168.21941933403775
6,156.55622328767174,156.55622328767174,188.1318709169252,206.63858776121967
7,177.5059962061362,188.1318709169252,206.63858776121967,229.28477243676713
8,215.9569887684445,215.9569887684445,237.9077425252521,257.18422275111135
9,248.06958434368204,248.06958434368204,257.18422275111135,273.2495145998732
10,293.33831885581696,293.33831885581696,303.0409460317451,319.76937379977204
11,347.1391616529382,347.1391616529382,348.5771072988872,367.05765904338637
12,379.189194338407,379.189194338407,389.54039850483974,404.03253274028816
13,395.66653358830916,395.66653358830916,413.42928951452177,433.60585326891106
14,450.7572835515375,450.7572835515375,484.5786067083159,504.5744503862968
15,484.151434453464,484.5786067083159,504.5744503862968,519.4575443007517
16,529.1274200665486,529.1274200665486,541.9811609615574,552.678512075876
17,540.3953186724755,541.9811609615574,561.0700467269894,576.2099095577919
18,573.004886449708,573.004886449708,576.2099095577919,590.5416436286538
19,605.6221357416915,605.6221357416915,635.5468712399646,653.3608225521638
20,626.7743459155943,635.5468712399646,653.3608225521638,671.9554707320766
21,649.5909015253148,649.5909015253148,671.9554707320766,688.4934408446364
22,706.3446294562937,706.3446294562937,720.0920191302366,736.2478447594973
23,754.4723979139673,754.4723979139673,755.1432118390558,772.9230166936028
24,771.247988008412,771.247988008412,773.9258047731245,792.0627723721328
25,809.9731938402203,809.9731938402203,853.0899674555147,861.5011795286813
26,864.5936603128824,864.5936603128824,891.8724536769358,908.6537830708779
27,912.8725943379125,912.8725943379125,930.2497042386417,946.4566892866201
28,944.7744189066177,944.7744189066177,971.1386440370902,987.5641860027109
29,985.3083068323017,985.3083068323017,1021.7044428946714,1038.3173335780598
30,1025.371680050729,1025.371680050729,1038.3173335780598,1058.0734502267453
31,1076.9083016354255,1076.9083016354255,1076.9560144369011,1091.7205062305488
32,1106.467119629443,1106.467119629443,1127.282738763719,1147.9810925264642
33,1160.1975727632616,1160.1975727632616,1176.5175390761337,1190.3526981859259
34,1182.5906544927916,1182.5906544927916,1190.3526981859259,1204.9513660979849
35,1214.9944510149364,1214.9944510149364,1218.002274377882,1233.5388280391958
36,1234.0326144651856,1234.0326144651856,1244.776556689583,1266.9716834313656
37,1261.213562127557,1261.213562127557,1273.5979885750648,1290.1286299868477
38,1296.8603736422501,1296.8603736422501,1305.5910542715637,1323.9880150925974
39,1311.6764950995373,1311.6764950995373,1323.9880150925974,1338.4901913177118
40,1336.1014024840613,1336.1014024840613,1379.5347963718666,1399.9256692270967
41,1371.8643128809247,1379.5347963718666,1400.051788214435,1422.130013551794
42,1423.2867145023338,1423.2867145023338,1425.6510855658341,1440.069505813508
43,1466.515536961246,1466.515536961246,1488.168569791805,1501.4723627175736
44,1511.960328528862,1511.960328528862,1512.9744746271465,1529.2242733821997
45,1549.967697422407,1549.967697422407,1556.6574158371823,1574.0778525608773
46,1588.6547556333808,1588.6547556333808,1594.6980054014152,1606.6667292774453
47,1645.371110734893,1645.371110734893,1654.6095189917003,1666.5829881527707
48,1696.3025745076357,1696.3025745076357,1705.5443102913152,1724.5741609860045
49,1739.8184075789522,1739.8184075789522,1764.868785784974,1779.3101473723173
50,1795.3225936711433,1795.3225936711433,1834.435627479986,1849.2765942214871
51,1810.365854297534,1834.435627479986,1849.2765942214871,1870.0792960437097
52,1831.1345906629422,1843.555043792454,1870.0792960437097,1885.3665090071956
53,1862.5366960844344,1862.5366960844344,1885.3665090071956,1905.0530096785046
54,1879.3503750067312,1879.3503750067312,1905.0530096785046,1920.2414951162339
55,1925.497346308221,1925.497346308221,1939.2796543717536,1958.7997956738343
56,1962.3277091358686,1962.3277091358686,1963.0900260709573,1976.0302402212044
57,1980.60032549172,1980.60032549172,1985.7765187450827,1996.2147168048052
58,2037.9136621535183,2037.9136621535183,2039.7466579052643,2050.7428291798096
59,2064.7452568965787,2064.7452568965787,2090.5472958899404,2103.8996255199836
60,2094.257845884959,2094.257845884959,2104.1967902081747,2119.1855863538053
61,2116.106909261823,2116.106909261823,2120.1469578416704,2139.5932246406323
62,2160.454143206025,2160.454143206025,2176.086618277797,2190.04960370499
63,2188.0981162208673,2188.0981162208673,2199.181873307006,2215.100970024149
64,2222.4212301959424,2222.4212301959424,2237.8157671424183,2253.431901321305
65,2273.3405442571566,2273.3405442571566,2281.758340546489,2297.355144534063
66,2302.84984428387,2302.84984428387,2312.552719583663,2332.183926944609
67,2326.3019518198194,2326.3019518198194,2332.183926944609,2348.430408198516
68,2345.347922222545,2345.347922222545,2354.084665815843,2369.576722864571
69,2400.326351459377,2400.326351459377,2404.273699461634,2422.753269590385
70,2439.898087345537,2439.898087345537,2441.9171109803,2457.2054237911307
71,2456.8449364022945,2456.8449364022945,2458.53913395788,2476.8774498946423
72,2474.445980586711,2474.445980586711,2499.695988778028,2510.1498411404755
73,2499.7215621423793,2499.7215621423793,2510.1498411404755,2526.808759480956
74,2517.3534899392857,2517.3534899392857,2526.808759480956,2542.207521068194
75,2541.167517872908,2541.167517872908,2542.7639799153962,2561.2367786807417
76,2584.1332143925133,2584.1332143925133,2596.369960448428,2609.441492157408
77,2601.8105873178815,2601.8105873178815,2609.441492157408,2630.094437226526
78,2638.224777483773,2638.224777483773,2643.882565001547,2658.01227566296
79,2661.227784810896,2661.227784810896,2665.2603843023057,2687.3534749429296
80,2710.369199004527,2710.369199004527,2745.3783512713076,2765.380118330819
81,2727.8961544816725,2745.3783512713076,2766.233742019212,2785.3715075571554
82,2751.752613860404,2766.233742019212,2785.3715075571554,2801.2551579835426
83,2793.0700470538454,2793.0700470538454,2806.755634549737,2821.0539407444476
84,2804.678788721571,2806.755634549737,2821.0539407444476,2834.8130957709823
85,2840.0681942442257,2840.0681942442257,2850.798748653326,2868.902660831146
86,2856.6989588037163,2856.6989588037163,2868.902660831146,2881.741435752114
87,2905.9119535233917,2905.9119535233917,2912.4135477039526,2926.70173460405
88,2939.183912999797,2939.183912999797,2943.83331302495,2960.402429841422
89,2952.824361771437,2952.824361771437,2960.402429841422,2978.586958982702
90,2991.2646092168397,2991.2646092168397,3010.467430802766,3032.3625202426415
91,3040.549219069457,3040.549219069457,3049.0460943476714,3066.211547896622
92,3089.2447669356948,3089.2447669356948,3099.7300091614065,3113.531634611369
93,3127.618727444867,3127.618727444867,3145.3263566710893,3165.354256265795
94,3169.996907049385,3169.996907049385,3181.996391865811,3198.038900162711
95,3203.42717147982,3203.42717147982,3216.4147693442023,3232.8470968693177
96,3218.331890439442,3218.331890439442,3232.8470968693177,3250.224689691473
97,3260.2945366175977,3260.2945366175977,3261.7400768660045,3279.4303000292152
98,3281.2411538260926,3281.2411538260926,3288.195329946556,3302.5027423346
99,3313.2035780164883,3313.2035780164883,3316.367493701372,3331.9678687923674
100,3327.6354357594955,3327.6354357594955,3334.1603206064533,3352.097634465549
101,3385.7657942660758,3385.7657942660758,3403.242054492299,3417.983506828828
102,3408.1695094333772,3408.1695094333772,3417.983506828828,3437.8841652416922
103,3420.160793998712,3420.160793998712,3437.8841652416922,3452.406648257015
104,3433.687427933476,3433.687427933476,3452.406648257015,3470.146767848248
105,3450.3861130662885,3450.3861130662885,3470.146767848248,3490.1045933871496
106,3484.624862426351,3484.624862426351,3490.1045933871496,3507.875125619912
107,3513.981614783816,3513.981614783816,3524.0181420485656,3538.290916308164
108,3547.7886347262424,3547.7886347262424,3560.1241940137907,3576.9778827672185
109,3603.9397586406417,3603.9397586406417,3606.519891963104,3618.0264963609634
110,3637.7265230496196,3637.7265230496196,3657.089824531198,3672.315477349425
111,3649.3738473181907,3657.089824531198,3700.4357927835513,3713.4715721590032
112,3703.592924171085,3703.592924171085,3717.719254385444,3733.574418233142
113,3746.2102002553884,3746.2102002553884,3757.5839897762244,3772.612738952099
114,3795.3010185613903,3795.3010185613903,3795.600581821049,3812.363829149884
115,3824.526661532363,3824.526661532363,3837.0505688986445,3853.5600738716407
116,3861.7072188088714,3861.7072188088714,3865.2079118116476,3881.8221478341784
117,3920.162416713619,3920.162416713619,3923.830789816753,3940.067887341063
118,3967.5882070720004,3967.5882070720004,3989.347951544727,4006.075447521459
119,4001.806654192617,4001.806654192617,4006.075447521459,4019.483596935055
120,4044.6254416783167,4044.6254416783167,4049.609363831075,4059.7989342110213
121,4079.113881564112,4079.113881564112,4089.4257783418448,4105.609385001045
122,4097.103803630742,4097.103803630742,4105.609385001045,4116.149016341099
123,4135.512439718228,4135.512439718228,4136.333946755168,4150.286902680826
124,4184.272589604774,4184.272589604774,4203.174375676555,4219.1878027077255
125,4241.552283689746,4241.552283689746,4244.002796935667,4260.77671568705
126,4268.300970146786,4268.300970146786,4274.033125400441,4292.481610882582
127,4318.188817656362,4318.188817656362,4319.639217868344,4330.177443743837
128,4343.519918564448,4343.519918564448,4348.075210143345,4358.978252707618
129,4379.051236549807,4379.051236549807,4393.56996174446,4412.360090121395
130,4409.728615843012,4409.728615843012,4412.583114874976,4424.865831651627
131,4434.044787791934,4434.044787791934,4434.8055067787045,4458.341527474791
132,4486.943434402538,4486.943434402538,4522.9114473909385,4539.15720846787
133,4505.851267216013,4522.9114473909385,4539.15720846787,4550.839462334035
134,4532.413527364214,4532.413527364214,4550.839462334035,4564.027818901394
135,4576.83178448395,4576.83178448395,4591.388558536035,4607.365774627832
136,4608.521641917542,4608.521641917542,4610.815131066908,4626.393567755666
137,4634.55148100646,4634.55148100646,4637.655856715745,4656.014355892686
138,4658.884264034542,4658.884264034542,4668.684361732308,4683.326342436087
139,4670.371105020797,4670.371105020797,4683.326342436087,4697.436122223372
140,4698.531541571028,4698.531541571028,4706.857106207443,4725.908835853621
141,4728.504914035334,4728.504914035334,4743.30080170213,4759.466114713689
142,4786.7406263276835,4786.7406263276835,4787.938433253295,4807.144076778488
143,4798.984060595675,4798.984060595675,4807.144076778488,4825.5188155182395
144,4812.773085873923,4812.773085873923,4830.046285400886,4846.027440152282
145,4851.879053467038,4851.879053467038,4854.060183228772,4871.897947787629
146,4884.944137618791,4884.944137618791,4893.0780349864635,4905.47602116993
147,4900.340733738282,4900.340733738282,4911.372601050189,4928.299628273408
148,4918.433790205873,4918.433790205873,4928.299628273408,4943.215469759151
149,4966.169724809258,4966.169724809258,4976.506913959336,4994.215855054656
150,4988.813049976144,4988.813049976144,5001.9512181796545,5017.251712785507
151,5020.798619420125,5020.798619420125,5035.01268958563,5048.477853274377
152,5035.804745784743,5035.804745784743,5048.477853274377,5060.187075748664
153,5089.547430009603,5089.547430009603,5097.877831115758,5112.5198134993125
154,5141.271879703381,5141.271879703381,5153.083915136181,5171.3131761597715
155,5189.430851079928,5189.430851079928,5221.365998880094,5239.201900982751
156,5231.438211612067,5231.438211612067,5239.201900982751,5256.052810797565
157,5274.096076122603,5274.096076122603,5280.645174618691,5295.657993884121
158,5301.831382426672,5301.831382426672,5315.3300887460455,5323.373161222469
159,5317.9736723125825,5317.9736723125825,5332.433846584862,5347.025398427958
160,5372.967846503948,5372.967846503948,5392.602797910477,5411.457235593005
161,5410.431633249848,5410.431633249848,5411.457235593005,5425.334133244915
162,5467.261867494995,5467.261867494995,5467.631058785172,5481.898697266315
163,5501.154796502846,5501.154796502846,5514.9485014905695,5534.395109183118
164,5525.424594167852,5525.424594167852,5534.395109183118,5549.1778121242805
165,5562.538507184417,5562.538507184417,5570.079486799995,5582.115617493235
166,5607.742475125757,5607.742475125757,5609.216934757752,5628.443510478643
167,5654.9956777741645,5654.9956777741645,5659.741217562708,5678.751210211698
168,5701.4373360779955,5701.4373360779955,5710.597864871949,5728.487765219577
169,5754.31774796643,5754.31774796643,5773.326631439452,5794.981148669754
170,5793.67239272915,5793.67239272915,5802.653379539597,5824.435994490718
171,5841.427724517695,5841.427724517695,5847.548488678561,5857.40543163731
172,5894.133265517112,5894.133265517112,5894.772713393877,5913.080111770215
173,5916.629656385508,5916.629656385508,5919.46309211814,5935.657542560696
174,5958.323697023629,5958.323697023629,5965.2385276030855,5978.986009327446
175,5979.368825569115,5979.368825569115,5988.272497924917,6007.455413874937
176,6021.862945509743,6021.862945509743,6037.074167701509,6048.335439769377
177,6054.1203546947045,6054.1203546947045,6092.623520490743,6102.8563796003755
178,6108.649663254197,6108.649663254197,6110.290633371905,6125.251684440659
179,6163.775772485387,6163.775772485387,6165.908016533334,6183.436715977503
180,6212.684314491047,6212.684314491047,6227.704167156812,6243.9223036332
181,6247.088116594552,6247.088116594552,6251.945529994705,6263.840568596344
182,6273.764465599038,6273.764465599038,6305.4421529533965,6320.804656511206
183,6321.575765716927,6321.575765716927,6332.995882446569,6349.887639565155
184,6376.061555161937,6376.061555161937,6388.65109634535,6407.400857839926
185,6426.868875060344,6426.868875060344,6427.06635624036,6440.242932560234
186,6442.140340536086,6442.140340536086,6443.785874654582,6462.084246574539
187,6483.063727127866,6483.063727127866,6483.804514456785,6502.556758938011
188,6536.072998177936,6536.072998177936,6560.0989729876765,6574.739854976319
189,6568.7235203111195,6568.7235203111195,6574.739854976319,6591.023352641207
190,6617.697602917323,6617.697602917323,6635.242667332455,6652.526441129549
191,6640.628157447514,6640.628157447514,6652.526441129549,6666.840446370188
192,6670.496522224062,6670.496522224062,6671.409062660222,6690.203932794607
193,6694.855776045306,6694.855776045306,6703.638700267907,6715.861371055544
194,6727.265476365713,6727.265476365713,6728.390866616055,6746.023876050339
195,6760.375690214118,6760.375690214118,6761.941806342894,6774.015054659514
196,6771.491714504507,6771.491714504507,6781.635979738374,6797.381993509589
197,6803.212163732375,6803.212163732375,6823.06532687108,6844.085675547332
198,6846.272743718184,6846.272743718184,6850.102933409072,6869.938435389429
199,6867.366619449977,6867.366619449977,6880.780941764304,6900.926195023145
200,6887.544841755646,6887.544841755646,6900.926195023145,6911.47757294354
201,6909.264008253899,6909.264008253899,6917.9305498140075,6936.80915489882
202,6931.937731602155,6931.937731602155,6936.80915489882,6955.525385946376
203,6964.3771781952355,6964.3771781952355,6968.799166699118,6982.293284664562
204,7023.336553970169,7023.336553970169,7030.754220971961,7045.316754811469
205,7072.541230790136,7072.541230790136,7075.115608022489,7090.898176076628
206,7090.164218087876,7090.164218087876,7095.8600100483945,7113.998984941985
207,7136.8988007604285,7136.8988007604285,7177.457719868672,7190.751295513933
208,7160.42818698568,7177.457719868672,7190.751295513933,7206.396029015147
209,7193.773288518515,7193.773288518515,7206.396029015147,7221.597299052331
210,7227.286869744095,7227.286869744095,7240.796418909407,7254.418109484129
211,7253.876510693033,7253.876510693033,7259.029111447127,7277.505097382114
212,7297.329339397887,7297.329339397887,7308.26376487537,7323.834080040004
213,7342.393709126848,7342.393709126848,7344.625496895189,7355.657194511494
214,7368.3360303053305,7368.3360303053305,7389.967196961232,7410.455120785884
215,7404.8070453347345,7404.8070453347345,7412.6114602885755,7429.165965941788
216,7433.036354349598,7433.036354349598,7433.5101328284645,7448.381123896243
217,7485.345420862657,7485.345420862657,7510.55092415244,7527.01159980669
218,7522.225366964708,7522.225366964708,7527.01159980669,7538.665379759062
219,7539.287563719898,7539.287563719898,7555.604620347892,7571.743153569166
220,7578.835295170552,7578.835295170552,7589.623726215634,7608.535716165056
221,7596.960722652924,7596.960722652924,7608.535716165056,7620.623146567255
222,7618.865610823605,7618.865610823605,7630.760262737659,7642.8064065910385
223,7672.845961668427,7672.845961668427,7673.282710329661,7686.05055987825
224,7727.37554379695,7727.37554379695,7740.469273796868,7758.765225394659
225,7754.331253254857,7754.331253254857,7763.751298616274,7777.128113482847
226,7788.696772851745,7788.696772851745,7797.420483614376,7810.313630670447
227,7812.008333994209,7812.008333994209,7813.1403598104125,7827.35292424455
228,7831.186931311878,7831.186931311878,7865.279860129096,7882.249720589461
229,7864.5964635955415,7865.279860129096,7882.249720589461,7896.531783609994
230,7911.761528169005,7911.761528169005,7923.042251117468,7947.276754686089
231,7960.591266479688,7960.591266479688,7962.134347231759,7979.642590368515
232,7993.896334372516,7993.896334372516,7999.69020258118,8017.8263084306
233,8040.898037631361,8040.898037631361,8043.375661721678,8066.064531976786
234,8084.626796254127,8084.626796254127,8096.898176130754,8110.592152334634
235,8133.198951329932,8133.198951329932,8150.663889246624,8165.643953163787
236,8162.052754558497,8162.052754558497,8165.756427643997,8178.6264884462735
237,8219.450609409041,8219.450609409041,8237.885311971266,8255.605527789487
238,8256.246535223878,8256.246535223878,8261.901596938285,8277.416987423847
239,8309.611179308502,8309.611179308502,8310.967210195107,8324.4053398937
240,8340.291402316725,8340.291402316725,8357.046823342353,8372.780024593403
241,8368.689079480882,8368.689079480882,8384.291233145565,8395.946960510168
242,8407.961515094325,8407.961515094325,8428.995241548817,8449.659067183837
243,8456.196142229475,8456.196142229475,8480.994631353538,8494.519052323156
244,8487.913660401624,8487.913660401624,8494.519052323156,8512.04300957677
245,8512.654635862575,8512.654635862575,8512.734787702728,8525.599760752542
246,8557.782804530154,8557.782804530154,8559.711558199633,8577.092934670916
247,8574.088340365592,8574.088340365592,8581.529669476498,8594.351029900932
248,8598.126984700735,8598.126984700735,8617.363956099867,8635.575791059935
249,8635.476993345766,8635.476993345766,8642.033454437968,8659.916345167765
250,8668.283958750708,8668.283958750708,8674.732974929198,8693.850146739367
251,8689.792421687464,8689.792421687464,8703.664692880775,8720.883024739367
252,8745.395198766595,8745.395198766595,8749.199464068693,8766.117474632914
253,8778.726930108378,8778.726930108378,8789.638556066726,8806.755148945102
254,8830.361040018135,8830.361040018135,8843.877436956276,8863.90046204297
255,8845.27747391815,8845.27747391815,8863.90046204297,8878.096614667827
256,8862.510800977983,8862.510800977983,8878.096614667827,8895.832799651505
