# file created by code in harbour_fns_1896438.jl
# file created on 2026-03-09 at 15:39:46
# parameter: seed = 1896616
# parameter: T = 30000.0
# parameter: lower_interarrival = 11.0
# parameter: upper_interarrival = 59.0
# parameter: mean_process_times = [11.0, 16.0]
# parameter: max_queue = [9223372036854775807, 4]
# parameter: time_units = hours
id,arrival_time,start_service_times,start_service_times,completion_time
1,0.0,0.0,8.001099552206835,21.745628662910168
2,37.05221343208284,37.05221343208284,46.493825133417545,70.89146529010756
3,78.27471046708972,78.27471046708972,106.96451733866714,122.18958026372258
4,136.4520224770159,136.4520224770159,180.46579075882852,193.5447253854168
5,153.15771966011647,180.46579075882852,208.194005646003,226.2164536367251
6,179.85731743061478,208.194005646003,226.2164536367251,244.22571931758768
7,213.04076845388306,213.04076845388306,244.22571931758768,259.2419667033358
8,232.0146974916771,232.0146974916771,259.2419667033358,279.88299716716045
9,290.40101349731657,290.40101349731657,301.05895656558556,314.90231725271275
10,311.1892626696363,311.1892626696363,314.90231725271275,331.51169647085595
11,333.13238720175724,333.13238720175724,352.9708338554989,365.2717302027476
12,356.1278071022165,356.1278071022165,365.2717302027476,383.55486276420606
13,389.10089440987025,389.10089440987025,399.2733916806407,418.0573703719142
14,406.5985078561627,406.5985078561627,425.5659471987454,439.7355617378288
15,432.4495664792186,432.4495664792186,439.7355617378288,454.0915042215832
16,478.8291399793071,478.8291399793071,496.6955319657567,510.1154098478318
17,512.7392091858561,512.7392091858561,514.0476951653675,527.809157030776
18,566.2236280892905,566.2236280892905,578.3646284184284,595.8993449527234
19,602.9579819650247,602.9579819650247,613.1999632762553,631.0966538809669
20,638.966673869357,638.966673869357,643.3285895271893,656.8685608195561
21,677.4762058946009,677.4762058946009,679.5520482515337,688.7090447878909
22,717.3710629110014,717.3710629110014,725.1614041918984,740.6430967301461
23,752.5921409257746,752.5921409257746,769.6425196016891,784.9321065398487
24,777.2361546486494,777.2361546486494,801.2065214808177,817.8108179609479
25,821.350194149223,821.350194149223,825.2908842949652,838.8135765370224
26,842.358551064402,842.358551064402,845.4909152141631,862.3510589006224
27,876.345737618143,876.345737618143,880.3081240805101,898.6558452904393
28,894.4205899370553,894.4205899370553,907.1097822531069,924.9282894835366
29,906.8669666191518,907.1097822531069,925.132186771801,941.6686826380236
30,922.2052415553621,925.132186771801,941.6686826380236,953.5114653987034
31,933.7746905349663,933.7746905349663,953.5114653987034,966.4671433528129
32,981.5558758268595,981.5558758268595,1001.4833884562679,1017.1178435445348
33,1003.8997633436293,1003.8997633436293,1017.1178435445348,1030.0293675700113
34,1038.663718510735,1038.663718510735,1060.4510054187447,1071.8511343355847
35,1081.0465173408484,1081.0465173408484,1096.0548744948676,1110.2047786035646
36,1108.0386034489306,1108.0386034489306,1116.1364910384289,1128.642669118554
37,1161.7706796363577,1161.7706796363577,1167.888469183471,1184.6277418966658
38,1187.885304422459,1187.885304422459,1193.2629032420257,1212.5555898230896
39,1239.2232776161165,1239.2232776161165,1270.358650751774,1283.0835940829627
40,1256.9128766424008,1270.358650751774,1283.0835940829627,1297.89387797457
41,1283.4179149339,1283.4179149339,1297.89387797457,1315.1755449975838
42,1310.166993302683,1310.166993302683,1352.8303756546402,1367.4799516326239
43,1362.392148371143,1362.392148371143,1367.6054556197553,1386.0157541173687
44,1388.8829776916655,1388.8829776916655,1389.0521871822618,1405.63404035354
45,1412.4257783840173,1412.4257783840173,1413.5879679683346,1426.9648294066515
46,1452.7688892082376,1452.7688892082376,1457.555939852798,1474.2314523653345
47,1466.282583375373,1466.282583375373,1487.8901637581394,1504.849292883197
48,1496.9016589374398,1496.9016589374398,1504.849292883197,1520.956479486505
49,1524.63725576821,1524.63725576821,1526.91397149083,1544.2604699522924
50,1576.3025410280648,1576.3025410280648,1586.990460231245,1603.042358014548
51,1632.7416382061065,1632.7416382061065,1647.4940904747648,1663.08281444792
52,1687.497999077604,1687.497999077604,1692.149454491823,1703.179944003898
53,1704.3079258548853,1704.3079258548853,1708.3708747564424,1722.9883025968647
54,1739.4866030164444,1739.4866030164444,1750.7833318698479,1766.9030689324902
55,1777.9058723866037,1777.9058723866037,1778.3206687596328,1790.9033674254922
56,1823.1461159093174,1823.1461159093174,1826.2628345222417,1846.1738295076195
57,1835.1260359323871,1835.1260359323871,1846.1738295076195,1858.8362042347983
58,1874.8975244135536,1874.8975244135536,1875.203032256265,1890.4276128548547
59,1932.2875699247984,1932.2875699247984,1936.8795984769645,1949.4890477118886
60,1953.7815976214831,1953.7815976214831,1975.0674429459111,1990.7497736813102
61,2005.6505401590528,2005.6505401590528,2026.2072751955122,2039.3845858909076
62,2033.327198023123,2033.327198023123,2064.970002103167,2075.939564359336
63,2092.08520156335,2092.08520156335,2093.7246252764885,2104.5348012220747
64,2117.581339292577,2117.581339292577,2119.3255091653227,2134.6646706555393
65,2169.362521133063,2169.362521133063,2171.625372405448,2184.7663342572364
66,2213.5245567448515,2213.5245567448515,2233.414915261532,2245.5224982958503
67,2269.540041962073,2269.540041962073,2283.662346918247,2299.730660490316
68,2285.8061522453672,2285.8061522453672,2299.730660490316,2317.732104685988
69,2325.021117657854,2325.021117657854,2338.100337876238,2357.1294039414015
70,2344.983036979078,2344.983036979078,2357.1294039414015,2370.9477950947644
71,2370.164478866817,2370.164478866817,2391.3031064866836,2407.327230751093
72,2382.0735784619,2391.3031064866836,2407.327230751093,2420.187194555643
73,2404.3021120018348,2404.3021120018348,2420.187194555643,2434.813146100865
74,2452.7876925910487,2452.7876925910487,2456.7205772606285,2472.2438883320406
75,2489.9083443792656,2489.9083443792656,2510.157022536396,2527.5915599720934
76,2527.81257338836,2527.81257338836,2535.658575163485,2552.2439122137384
77,2552.2138823815253,2552.2138823815253,2560.611597131977,2575.4521532156273
78,2595.337834220645,2595.337834220645,2597.9957423867295,2609.918761714225
79,2613.022690032755,2613.022690032755,2615.5874530324154,2636.3654880532986
80,2663.642402121448,2663.642402121448,2687.512073220947,2705.2034066893057
81,2711.5347431793075,2711.5347431793075,2715.850710284788,2732.4413071940044
82,2729.072649555289,2729.072649555289,2741.9531244870614,2756.1735739465084
83,2751.9924683631243,2751.9924683631243,2756.1735739465084,2772.29134572538
84,2774.856275657363,2774.856275657363,2790.755358504102,2809.9892192855773
85,2816.9001614251415,2816.9001614251415,2826.742487989247,2840.5568257642985
86,2828.8744793292003,2828.8744793292003,2840.5568257642985,2854.117483011375
87,2879.5842875379067,2879.5842875379067,2888.110851103266,2904.5238147318823
88,2922.7460735985164,2922.7460735985164,2936.942054081361,2954.3810014912565
89,2977.4167473819407,2977.4167473819407,2980.2649405768193,2996.0220245616943
90,3024.978328877944,3024.978328877944,3033.0992602683787,3050.5533521148436
91,3081.6365107822835,3081.6365107822835,3091.9082027851355,3103.813570743488
92,3119.7605228714433,3119.7605228714433,3124.194485208374,3137.8370950093376
93,3148.421379987845,3148.421379987845,3152.1469326380156,3168.772291990093
94,3172.095168601224,3172.095168601224,3179.05550146312,3199.8452630698243
95,3188.5347947765854,3188.5347947765854,3199.8452630698243,3216.7810188021513
96,3208.758058089377,3208.758058089377,3233.604200516232,3248.90729576328
97,3249.9412956002775,3249.9412956002775,3250.3504000758926,3263.1408380604244
98,3272.506122635541,3272.506122635541,3276.6375517087235,3293.863717450353
99,3307.169068538403,3307.169068538403,3311.028979370532,3320.1627019187245
100,3320.0374244826335,3320.0374244826335,3327.4371072030253,3343.3011688481197
101,3360.5290426041292,3360.5290426041292,3360.7512267992797,3381.435832768438
102,3409.9573395711645,3409.9573395711645,3424.1910197754964,3448.19220998051
103,3451.7734956101413,3451.7734956101413,3452.625202491181,3467.4492639007813
104,3465.0001386138856,3465.0001386138856,3467.4492639007813,3482.6760889988655
105,3502.825457055557,3502.825457055557,3522.6594287946673,3535.894253193187
106,3555.561942465524,3555.561942465524,3571.208054284056,3590.2190041297463
107,3610.750816028726,3610.750816028726,3616.656986192599,3632.4721401734396
108,3638.2796818628713,3638.2796818628713,3643.0246663008525,3657.8075788063497
109,3668.468383288322,3668.468383288322,3668.5826225203364,3682.4667432183624
110,3724.9197693705346,3724.9197693705346,3748.234953681794,3762.8549040931503
111,3756.705565693858,3756.705565693858,3765.7134171333373,3781.2975569877517
112,3814.7833706492374,3814.7833706492374,3815.7567350172235,3828.2045296152337
113,3826.24041371079,3826.24041371079,3832.6275453827875,3846.0055371742537
114,3882.4455089907515,3882.4455089907515,3895.970042562881,3911.3123862184398
115,3894.04585287182,3895.970042562881,3911.3123862184398,3922.3142452856564
116,3914.8234591065634,3914.8234591065634,3949.764454807423,3964.046662091404
117,3970.556241134354,3970.556241134354,3973.595082817521,3988.843871991321
118,4006.558564966286,4006.558564966286,4012.726374080642,4028.5665628904476
119,4062.6325203511956,4062.6325203511956,4107.824677683656,4126.084893614052
120,4075.28625159002,4107.824677683656,4126.084893614052,4138.838639066997
121,4094.0625927282044,4108.806574107734,4138.838639066997,4153.515392376982
122,4125.415937873085,4125.415937873085,4153.515392376982,4170.663144900348
123,4139.518341364159,4151.867765648049,4170.663144900348,4185.633464309712
124,4154.636152888365,4154.636152888365,4185.633464309712,4201.155586627295
125,4180.364889095556,4180.364889095556,4201.155586627295,4212.50198712739
126,4208.728801207654,4208.728801207654,4212.604694887037,4225.372039342721
127,4234.270697014863,4234.270697014863,4241.814445555338,4257.465555757079
128,4293.062628616029,4293.062628616029,4309.2896949537735,4320.005977076683
129,4331.427815502585,4331.427815502585,4338.525887653837,4350.343122673645
130,4389.434702476802,4389.434702476802,4394.880749753628,4411.84209574551
131,4441.740737250521,4441.740737250521,4444.162748561384,4465.833507410205
132,4457.29406749369,4457.29406749369,4465.833507410205,4485.773531754978
133,4507.966008016061,4507.966008016061,4523.103260911555,4537.884116500666
134,4545.635442944033,4545.635442944033,4556.673707356571,4571.325971029474
135,4573.0680710866445,4573.0680710866445,4578.590584371515,4600.861601782744
136,4585.556997951846,4585.556997951846,4607.462477540188,4623.706829602136
137,4612.970842013149,4612.970842013149,4623.706829602136,4640.5138811721945
138,4652.795212547263,4652.795212547263,4668.373160510643,4691.236589056717
139,4699.809385842072,4699.809385842072,4699.950367099083,4711.297960078316
140,4724.9382577466795,4724.9382577466795,4731.24055016364,4746.560605766914
141,4777.09268209034,4777.09268209034,4777.1628410041185,4791.583850425504
142,4788.80620577248,4788.80620577248,4798.5295070485645,4813.998789106485
143,4805.589475849539,4805.589475849539,4813.998789106485,4824.231047503158
144,4856.6070559514,4856.6070559514,4861.691484569005,4881.0381857088505
145,4912.091373003739,4912.091373003739,4921.574313120298,4932.084055002358
146,4936.993812287982,4936.993812287982,4938.8619396310205,4951.968107185223
147,4985.9607157950995,4985.9607157950995,5005.8389475586,5021.497272615945
148,5032.97964669876,5032.97964669876,5044.056978490727,5060.833737550365
149,5071.01412590861,5071.01412590861,5073.601587514861,5079.173814002691
150,5111.8173386143135,5111.8173386143135,5116.3372434661815,5132.625227345507
151,5133.141752012587,5133.141752012587,5136.890437704236,5152.094653536817
152,5173.504015795047,5173.504015795047,5178.555182402442,5196.497773179744
153,5202.696388697283,5202.696388697283,5203.953860027025,5212.910940088491
154,5229.197301300609,5229.197301300609,5240.203182891284,5253.539360525663
155,5240.53170567506,5240.53170567506,5265.142973146947,5285.372854983021
156,5280.649952988286,5280.649952988286,5303.178967861653,5313.385899940246
157,5322.616941717625,5322.616941717625,5349.121266072372,5364.6712516268535
158,5343.1283256468405,5349.121266072372,5364.6712516268535,5381.852737721763
159,5369.361816004999,5369.361816004999,5381.852737721763,5403.217470998268
160,5396.955143994535,5396.955143994535,5403.217470998268,5412.769628598863
161,5449.547150640914,5449.547150640914,5452.580232768961,5465.329057963417
162,5461.650829434424,5461.650829434424,5471.751039076951,5486.311462140399
163,5501.360738752729,5501.360738752729,5506.738429513805,5523.884346010138
164,5559.036409513981,5559.036409513981,5560.168800433563,5577.78751737747
165,5586.360615788274,5586.360615788274,5590.6800610436685,5606.282338926637
166,5617.354394137226,5617.354394137226,5625.393947982336,5641.94343569081
167,5672.0377215685,5672.0377215685,5673.302924353017,5693.003289037423
168,5714.1522106270895,5714.1522106270895,5736.870070474589,5747.747085677411
169,5766.23078760366,5766.23078760366,5781.891642717056,5799.23563112827
170,5814.58652921637,5814.58652921637,5825.923725905198,5848.643184022274
171,5844.1971834170245,5844.1971834170245,5869.153650551078,5888.445981771762
172,5859.94056586292,5869.153650551078,5888.445981771762,5909.624215308712
173,5901.373066970297,5901.373066970297,5928.720679160483,5940.209128274357
174,5914.900102133413,5928.720679160483,5940.209128274357,5958.04170428641
175,5957.821768268818,5957.821768268818,5963.203035560941,5974.464786518925
176,6015.3720676826015,6015.3720676826015,6016.289643716102,6037.557675193775
177,6065.372732735345,6065.372732735345,6076.3180431744395,6097.739564836308
178,6076.498762700253,6076.498762700253,6097.739564836308,6109.569705327789
179,6123.912727284117,6123.912727284117,6138.573812782491,6152.588275484672
180,6150.119409602356,6150.119409602356,6169.86137390951,6181.326661063748
181,6208.5822710273005,6208.5822710273005,6218.724554821667,6236.044969153659
182,6258.433051603391,6258.433051603391,6261.510146716548,6276.61045883492
183,6291.704021133623,6291.704021133623,6300.043639169537,6316.342250370147
184,6305.9553913517,6305.9553913517,6316.342250370147,6333.32501711365
185,6322.931507608245,6322.931507608245,6333.32501711365,6344.997512703149
186,6362.188799022255,6362.188799022255,6371.486047026443,6386.506518449014
187,6402.319501920188,6402.319501920188,6403.167535147533,6415.2265227877015
188,6434.8565215113,6434.8565215113,6439.321045214656,6456.64842047462
189,6477.899633369883,6477.899633369883,6507.416115167529,6526.051980425624
190,6527.734483553311,6527.734483553311,6531.030955299994,6549.703583207691
191,6549.7588246753785,6549.7588246753785,6551.818522950122,6564.8915225954715
192,6584.561974386476,6584.561974386476,6608.716968718028,6619.377761869668
193,6597.602513675516,6608.716968718028,6619.377761869668,6634.3167952498625
194,6629.599373037603,6629.599373037603,6634.3167952498625,6650.810763423038
195,6677.837870314191,6677.837870314191,6678.768893065536,6696.838220156934
196,6700.48511280899,6700.48511280899,6727.372097820502,6743.78771834191
197,6719.461786646436,6727.372097820502,6743.78771834191,6761.767365959401
198,6752.075717408348,6752.075717408348,6761.767365959401,6781.340700969343
199,6772.118476517716,6772.118476517716,6781.340700969343,6794.066860835087
200,6793.955964219479,6793.955964219479,6813.616195800282,6828.091600101357
201,6821.43909042109,6821.43909042109,6849.886443207831,6867.982257856211
202,6855.76781611861,6855.76781611861,6867.982257856211,6884.909825385671
203,6882.145690976109,6882.145690976109,6885.395793081602,6906.007368394305
204,6905.839363300234,6905.839363300234,6926.2431041054415,6940.599145665605
205,6919.698436199537,6926.2431041054415,6940.599145665605,6952.853372000175
206,6937.594494932937,6937.594494932937,6952.853372000175,6972.3609792484785
207,6981.516571749997,6981.516571749997,6987.720283576452,7008.5686666341935
208,7025.437525178607,7025.437525178607,7095.726713343425,7112.007065334148
209,7071.491304559093,7095.726713343425,7112.007065334148,7125.0772962853825
210,7101.494769970246,7105.01945540605,7125.0772962853825,7144.938649938366
211,7113.881403624912,7123.325979118613,7144.938649938366,7158.037361611191
212,7144.254844370971,7144.254844370971,7158.037361611191,7173.128207144263
213,7172.179270572786,7172.179270572786,7178.340483546086,7193.099869174153
214,7214.326314825156,7214.326314825156,7235.847535732773,7257.1778168986475
215,7236.677678609555,7236.677678609555,7257.1778168986475,7270.536597325256
216,7269.315836915453,7269.315836915453,7276.186877373945,7289.343499217463
217,7290.847034685025,7290.847034685025,7295.388778850189,7309.173319290143
218,7340.896848185281,7340.896848185281,7357.72803176654,7371.542698365786
219,7376.423611913163,7376.423611913163,7380.071777481421,7395.033068062891
220,7400.041115603392,7400.041115603392,7400.463026278892,7417.286506034416
221,7445.529620150423,7445.529620150423,7453.134222928159,7465.816244270792
222,7466.681759030806,7466.681759030806,7495.221140017059,7513.676141298006
223,7494.33895172773,7495.221140017059,7513.676141298006,7532.533969031458
224,7547.239509709899,7547.239509709899,7547.513622408025,7565.340964911284
225,7580.584927154946,7580.584927154946,7582.301685621253,7601.5570173230835
226,7619.5168386265295,7619.5168386265295,7621.4373640741405,7636.274989223696
227,7634.584285844208,7634.584285844208,7648.70834034369,7666.837302477126
228,7659.566299687082,7659.566299687082,7671.501379497202,7689.037667346234
229,7705.242322975829,7705.242322975829,7716.208326128032,7729.3980779228195
230,7719.736560357769,7719.736560357769,7730.27308739917,7747.13886600725
231,7731.991987713572,7731.991987713572,7747.13886600725,7762.08930611962
232,7762.477309136349,7762.477309136349,7792.388785448977,7808.743543300692
233,7807.056249711466,7807.056249711466,7808.743543300692,7824.176303167848
234,7860.113136907223,7860.113136907223,7862.028611541078,7880.68314181262
235,7901.949190398274,7901.949190398274,7903.450609710554,7918.109559845408
236,7917.158100131624,7917.158100131624,7927.374982702325,7947.331514789764
237,7959.576545472134,7959.576545472134,7969.221794631887,7985.274537788654
238,7996.8968633826435,7996.8968633826435,7997.090611391766,8010.527870919826
239,8013.033475794523,8013.033475794523,8023.332841061713,8038.656996328911
240,8039.857806832332,8039.857806832332,8051.647408024289,8067.442826105277
241,8095.302635963423,8095.302635963423,8097.252418777704,8112.837102446719
242,8114.683552575698,8114.683552575698,8119.118996581681,8134.297925773674
243,8155.947314022915,8155.947314022915,8173.436571368731,8186.256882221217
244,8174.042596596002,8174.042596596002,8186.256882221217,8203.005995917509
245,8199.206621392203,8199.206621392203,8217.350863257441,8233.999027900718
246,8250.661634249936,8250.661634249936,8253.343983449886,8267.51827927049
247,8297.23180898566,8297.23180898566,8314.77874933022,8326.300557807494
248,8331.603872418656,8331.603872418656,8335.054272798514,8353.396390497124
249,8375.030293389016,8375.030293389016,8403.831967291588,8418.087561524155
250,8395.77478229496,8403.831967291588,8436.660257499161,8454.957705950226
251,8439.912132960619,8439.912132960619,8470.22040986626,8484.518866656139
252,8454.208716065756,8470.22040986626,8490.910404461367,8510.054380255537
253,8494.075565372923,8494.075565372923,8526.364608222711,8538.296049092787
254,8533.452684155669,8533.452684155669,8546.723308419221,8560.516295402373
255,8577.496412178092,8577.496412178092,8594.27607918712,8606.634395694295
256,8601.963336376395,8601.963336376395,8607.750422750598,8623.261852971438
257,8654.038889506319,8654.038889506319,8655.47254627806,8672.036295389875
