# file created by code in harbour_fns_1896438.jl
# file created on 2026-03-09 at 15:39:38
# parameter: seed = 1896500
# parameter: T = 30000.0
# parameter: lower_interarrival = 11.0
# parameter: upper_interarrival = 59.0
# parameter: mean_process_times = [11.0, 16.0]
# parameter: max_queue = [9223372036854775807, 4]
# parameter: time_units = hours
id,arrival_time,start_service_times,start_service_times,completion_time
1,0.0,0.0,10.60862404088179,29.504114600454944
2,24.809701539584733,24.809701539584733,39.59149620801639,59.37049845181077
3,61.90817149286157,61.90817149286157,80.3196537653257,102.25301728040102
4,111.80423920896601,111.80423920896601,126.77067967586174,141.73242056443053
5,166.16333133992597,166.16333133992597,181.2766089477179,194.8947421091815
6,186.81422173202884,186.81422173202884,210.31284017361608,229.77314788599935
7,220.99693035033494,220.99693035033494,236.02555421696073,256.1553926972288
8,261.2627926743264,261.2627926743264,263.5568756915312,282.77803729534963
9,312.31489185670415,312.31489185670415,314.48667144790795,329.75447786322235
10,360.9712907383067,360.9712907383067,372.05587169597425,385.48686340249907
11,406.66207464044487,406.66207464044487,423.016597703206,434.29223872280704
12,426.8250360714621,426.8250360714621,434.29223872280704,447.8151039091598
13,463.04473602952373,463.04473602952373,465.83148988979684,484.28601520204313
14,500.9442674580969,500.9442674580969,509.69512319940776,532.2252130265634
15,552.7736919116724,552.7736919116724,563.2616465752292,580.7929909049778
16,565.9987547183624,565.9987547183624,586.9627545940865,612.538060649734
17,584.3902277469134,586.9627545940865,612.538060649734,630.9128495303343
18,602.2174251817677,609.0951032926844,630.9128495303343,643.9945725266921
19,642.0122256508696,642.0122256508696,665.0333373348627,683.6636832626072
20,673.3172460389724,673.3172460389724,683.6636832626072,700.051856108186
21,713.1021106864332,713.1021106864332,714.4750000187512,734.6475877526732
22,728.62256844847,728.62256844847,748.2220818019722,766.6152590598194
23,753.0102947313302,753.0102947313302,766.6152590598194,779.7647676399887
24,795.7120830725362,795.7120830725362,802.4775988998698,815.7073210636848
25,838.1960570176418,838.1960570176418,846.046111756558,863.3769549652234
26,878.7816510973178,878.7816510973178,885.5866028570669,900.6272008919286
27,917.7300931637667,917.7300931637667,918.1430988903231,931.9098650324427
28,962.9900553321127,962.9900553321127,973.62907096464,992.3582019875847
29,996.9977127898943,996.9977127898943,999.8483422622447,1014.102134203143
30,1033.6815411155787,1033.6815411155787,1036.8215341121495,1049.430168751337
31,1065.8985959469292,1065.8985959469292,1132.5887206459574,1146.8849299153744
32,1091.495086221409,1132.5887206459574,1146.8849299153744,1163.608860747755
33,1133.2337305538626,1142.491500849604,1163.608860747755,1183.2496836115229
34,1165.2038952379185,1165.2038952379185,1183.2496836115229,1201.6211407981632
35,1191.3770541463812,1191.3770541463812,1201.6211407981632,1221.241462875886
36,1242.4892977289048,1242.4892977289048,1254.1013905251748,1274.960597791719
37,1272.2040238909578,1272.2040238909578,1283.5562719887905,1297.3258777359833
38,1318.2070502477432,1318.2070502477432,1319.761042956861,1333.7969150103972
39,1348.9750243727017,1348.9750243727017,1349.9812169289385,1365.304662958376
40,1373.6700816718026,1373.6700816718026,1413.7900535897345,1431.8296912524777
41,1394.2857329109993,1413.7900535897345,1431.8296912524777,1450.4728234879244
42,1423.78929644013,1423.78929644013,1450.4728234879244,1469.10875825656
43,1482.352155885844,1482.352155885844,1495.7119840507485,1513.5506639243042
44,1509.3645115373158,1509.3645115373158,1553.8582650325088,1565.0041396074566
45,1563.052661622839,1563.052661622839,1573.2116701437262,1588.6717533519234
46,1608.2361694523386,1608.2361694523386,1622.2600352968616,1637.5003353219674
47,1622.275753796253,1622.275753796253,1643.7281367393136,1659.0370086167688
48,1665.5936899441604,1665.5936899441604,1666.2607613125476,1685.9694793681392
49,1721.7876168126613,1721.7876168126613,1726.048675624819,1743.1042231662461
50,1749.5097275408395,1749.5097275408395,1755.4265642052992,1773.90900655117
51,1807.0020870455958,1807.0020870455958,1810.899349384412,1834.141869290021
52,1864.3556195107226,1864.3556195107226,1866.8131325325637,1884.241998417809
53,1887.431386691092,1887.431386691092,1894.0875701632876,1909.641882049746
54,1915.7976092634551,1915.7976092634551,1933.40127448032,1947.0683043064475
55,1970.2145312571345,1970.2145312571345,1974.9176778925414,1990.8718503682383
56,2020.6960204892127,2020.6960204892127,2026.6292911575936,2039.1820415732643
57,2069.473325269818,2069.473325269818,2074.0400512297033,2088.3816782864
58,2119.562698758832,2119.562698758832,2140.8393427559463,2153.931208040997
59,2136.949014025202,2140.8393427559463,2153.931208040997,2173.316766173545
60,2188.1443188168014,2188.1443188168014,2199.6481261916233,2217.6946120386738
61,2217.8362935289833,2217.8362935289833,2224.1039373458107,2240.319910626375
62,2247.973220995664,2247.973220995664,2249.0967392090934,2263.7266628561774
63,2262.8601120053004,2262.8601120053004,2267.0059811126584,2277.2300936004135
64,2300.267692008846,2300.267692008846,2325.0809095191303,2338.9508263307644
65,2350.054796776466,2350.054796776466,2356.590827721491,2376.129341477025
66,2365.453197757134,2365.453197757134,2380.351742732195,2395.0534182143992
67,2390.0129004565033,2390.0129004565033,2436.4738871546538,2453.5877910875297
68,2440.4401115043897,2440.4401115043897,2460.0483054200195,2475.7221315391957
69,2498.1425757593843,2498.1425757593843,2507.889106533993,2516.19291330713
70,2532.0778517666417,2532.0778517666417,2544.0007106475277,2561.955634678963
71,2579.428791503721,2579.428791503721,2590.7233010099044,2608.4507758181585
72,2634.9332673524323,2634.9332673524323,2642.080581865097,2654.996825173853
73,2682.6100151028413,2682.6100151028413,2683.0849503935383,2701.3017889132702
74,2737.5673335553347,2737.5673335553347,2738.6495962662725,2750.291563948589
75,2772.541052190723,2772.541052190723,2773.1372281600406,2787.3886638973872
76,2822.1477349842626,2822.1477349842626,2824.860721191258,2837.5403240344212
77,2849.589591477651,2849.589591477651,2857.205920659331,2873.9711563812866
78,2896.1326884494642,2896.1326884494642,2897.772103313625,2913.2933172960716
79,2927.020812449733,2927.020812449733,2942.5909231001856,2956.1247898228767
80,2957.9965647164126,2957.9965647164126,2971.4532988026376,2986.63907147578
81,3012.68064869285,3012.68064869285,3016.9132147220866,3036.342637629024
82,3043.3350963024636,3043.3350963024636,3058.6389877375627,3079.486871716425
83,3054.637426393049,3058.6389877375627,3079.486871716425,3095.224889524684
84,3107.387888181714,3107.387888181714,3114.823967312839,3129.6280527117933
85,3123.020871256141,3123.020871256141,3138.6288150664595,3156.413804339624
86,3152.6830135450527,3152.6830135450527,3156.413804339624,3172.9088686415653
87,3167.981086665582,3167.981086665582,3172.9088686415653,3193.872407843887
88,3215.2386074176175,3215.2386074176175,3217.3854143990457,3227.463064376921
89,3273.2759480490336,3273.2759480490336,3286.4043979220764,3303.3086269192236
90,3331.240568648338,3331.240568648338,3333.0815345857995,3348.532695954016
91,3349.6989968109033,3349.6989968109033,3372.720846743898,3392.230099346227
92,3393.020452609008,3393.020452609008,3404.1171225670278,3426.3918652702205
93,3419.256937079676,3419.256937079676,3437.7774889216007,3451.715242140316
94,3468.1083495794883,3468.1083495794883,3471.001523363834,3488.66762359571
95,3506.988738192492,3506.988738192492,3515.1518969332014,3529.8017736492366
96,3518.4139504364416,3518.4139504364416,3532.398979560577,3553.6253117083056
97,3569.3950332865843,3569.3950332865843,3597.0679012749056,3617.612861903613
98,3614.9490335634964,3614.9490335634964,3652.9085777871123,3669.799767177687
99,3661.749977038947,3661.749977038947,3669.799767177687,3685.76364052584
100,3680.114497324064,3680.114497324064,3687.2283262238866,3702.260452068535
101,3731.9122534972566,3731.9122534972566,3733.13735457363,3751.9852443878212
102,3766.6730232651294,3766.6730232651294,3769.4452396391134,3790.2544626096055
103,3803.0159527411215,3803.0159527411215,3815.031919514606,3823.6723886422624
104,3838.9254130841696,3838.9254130841696,3851.1309167334603,3869.34659547328
105,3866.1998571109325,3866.1998571109325,3869.34659547328,3883.737312548363
106,3891.489530099606,3891.489530099606,3891.528982405226,3905.671553771069
107,3909.482529459758,3909.482529459758,3922.070431115827,3935.066445507456
108,3936.1440689535234,3936.1440689535234,3945.6681043534386,3962.0355102920767
109,3970.757169434418,3970.757169434418,3992.864608074592,4003.7822010533923
110,4013.221414479399,4013.221414479399,4019.2435073723386,4031.441888189556
111,4057.0966332188023,4057.0966332188023,4061.032007956709,4075.7961532985173
112,4095.3895105386,4095.3895105386,4105.716525949452,4122.329070024714
113,4139.201956537011,4139.201956537011,4153.801839405063,4167.033000521821
114,4165.204433243938,4165.204433243938,4171.525867966458,4186.300577954794
115,4200.900719073686,4200.900719073686,4201.987284341464,4219.546833913125
116,4233.620455102174,4233.620455102174,4243.467704263905,4260.597224911312
117,4262.60395461802,4262.60395461802,4269.929350971993,4284.163066054497
118,4276.471686860895,4276.471686860895,4284.163066054497,4304.966250006731
119,4330.398952062951,4330.398952062951,4335.638447738846,4357.256268897267
120,4358.9364266385555,4358.9364266385555,4365.7575022746305,4381.1558517632
121,4414.210643869323,4414.210643869323,4435.575187454317,4452.48928696476
122,4445.277476632455,4445.277476632455,4466.650149231596,4483.296864878603
123,4469.552283238818,4469.552283238818,4487.133911950792,4500.17488927931
124,4501.416177321794,4501.416177321794,4510.515618306877,4530.245904295216
125,4549.266908527271,4549.266908527271,4551.60911905028,4562.996609220886
126,4576.949627641776,4576.949627641776,4580.536132556958,4604.128970866777
127,4613.642536633097,4613.642536633097,4626.704047620904,4644.141587378445
128,4669.819298830071,4669.819298830071,4676.079074074519,4693.722203220253
129,4683.135090488173,4683.135090488173,4698.569317258483,4715.912433438197
130,4736.811432372564,4736.811432372564,4742.125025372911,4761.155763552159
131,4761.283778844793,4761.283778844793,4796.121404601983,4807.86735508987
132,4785.229194351854,4796.121404601983,4807.86735508987,4818.135864181542
133,4798.52615665317,4799.027484022518,4818.135864181542,4834.45521907051
134,4832.33967384661,4832.33967384661,4872.006280527935,4884.781298889213
135,4880.9246811914445,4880.9246811914445,4909.420964343353,4925.266531301414
136,4929.227623054835,4929.227623054835,4931.427185131502,4947.526833995574
137,4956.081563308764,4956.081563308764,5003.4504684418125,5019.138623415702
138,4983.514147621047,5003.4504684418125,5019.138623415702,5032.074123108581
139,5005.89269406371,5010.597400340533,5032.074123108581,5054.092414621957
140,5051.968045152531,5051.968045152531,5056.42214023165,5072.423361762212
141,5070.615770278138,5070.615770278138,5115.747416929061,5128.438035424442
142,5095.941384671731,5115.747416929061,5128.438035424442,5142.690827319075
143,5149.760469755902,5149.760469755902,5152.487614354018,5164.244976453414
144,5185.853086012242,5185.853086012242,5195.031136225211,5213.338745778391
145,5201.352812020519,5201.352812020519,5213.338745778391,5232.271651032351
146,5219.125627016049,5219.125627016049,5232.271651032351,5247.890998899649
147,5253.5221299632285,5253.5221299632285,5254.03948489483,5275.584272899885
148,5267.480365881658,5267.480365881658,5287.785010179299,5306.009276302909
149,5293.051072972259,5293.051072972259,5308.700174090942,5326.8751145983015
150,5318.284871142979,5318.284871142979,5326.8751145983015,5345.978211977267
151,5341.482583932423,5341.482583932423,5345.978211977267,5361.64933682661
152,5374.054788855227,5374.054788855227,5376.60002096861,5392.52710340524
153,5403.6389101955365,5403.6389101955365,5409.167353127229,5426.725637018538
154,5431.007956834415,5431.007956834415,5436.287483733503,5454.330511515167
155,5456.263041246723,5456.263041246723,5459.984027492343,5478.634439982077
156,5470.137933721119,5470.137933721119,5480.001721102485,5498.508589211705
157,5522.233025988507,5522.233025988507,5537.331588750629,5555.012011007148
158,5564.140694770602,5564.140694770602,5566.729647709704,5584.372595471584
159,5596.275150581087,5596.275150581087,5596.367225967212,5610.646283436497
160,5648.7883697149755,5648.7883697149755,5658.694630296448,5679.210875212384
161,5674.217604963094,5674.217604963094,5696.561161020815,5711.38411892153
162,5717.551495778038,5717.551495778038,5717.739915945819,5734.404347170843
163,5741.596999389791,5741.596999389791,5746.528173873939,5761.790204143377
164,5787.3355727301205,5787.3355727301205,5793.695317820027,5810.752498419
165,5820.4776965475185,5820.4776965475185,5824.402954313141,5838.406455458378
166,5874.794603753878,5874.794603753878,5885.017033236876,5901.253229643583
167,5906.000599726864,5906.000599726864,5907.683128961231,5920.840469746502
168,5920.971415458814,5920.971415458814,5923.519815608735,5940.146444519166
169,5967.085641405427,5967.085641405427,5974.622733137514,5989.244337357313
170,5993.129161303551,5993.129161303551,6009.711569128774,6029.001054694365
171,6034.4595173746675,6034.4595173746675,6067.004896318571,6088.490855612842
172,6047.103623416334,6067.004896318571,6088.490855612842,6101.784146263276
173,6096.994997051262,6096.994997051262,6103.232286398345,6113.3165501300455
174,6129.876554646238,6129.876554646238,6131.682782968778,6147.143086683772
175,6179.2147068163695,6179.2147068163695,6194.971527208489,6214.4271338983635
176,6192.8326590752295,6194.971527208489,6226.935549198485,6245.1250780724395
177,6215.094305162685,6226.935549198485,6245.1250780724395,6261.141844211788
178,6240.886210950254,6242.85675737018,6272.104262698048,6290.30159131644
179,6297.0063408341575,6297.0063408341575,6331.036091386385,6353.261070454062
180,6339.5180691627165,6339.5180691627165,6353.544863809336,6363.854044056069
181,6352.342609885778,6353.544863809336,6363.854044056069,6377.448859821069
182,6376.760242586942,6376.760242586942,6387.603574698124,6402.5163479949815
183,6393.4325482026725,6393.4325482026725,6402.5163479949815,6420.522561567941
184,6424.113843176087,6424.113843176087,6431.235317781247,6448.701215220919
185,6466.493134060444,6466.493134060444,6475.098600295386,6485.736592896805
186,6491.910029223102,6491.910029223102,6504.5635840190835,6518.919063061701
187,6505.827824923284,6505.827824923284,6518.919063061701,6534.197612264887
188,6526.6999352288285,6526.6999352288285,6538.726215258161,6554.05099487226
189,6564.980153771312,6564.980153771312,6572.861306213207,6587.929247173856
190,6590.866828237687,6590.866828237687,6595.280697990544,6612.560643614494
191,6619.381615049549,6619.381615049549,6620.966742968361,6635.7405129932
192,6663.160311633859,6663.160311633859,6663.308730307077,6673.748766328295
193,6676.609589308166,6676.609589308166,6703.683341921219,6716.070722821691
194,6716.592674359188,6716.592674359188,6723.11460202086,6740.644157040144
195,6741.674338091384,6741.674338091384,6759.9273809009455,6779.52157197463
196,6766.695646124585,6766.695646124585,6779.52157197463,6794.403827473983
197,6816.887356575431,6816.887356575431,6827.964501463877,6845.070351825464
198,6871.508173548715,6871.508173548715,6879.5570410533055,6893.461539489556
199,6917.282557258364,6917.282557258364,6926.889254261784,6943.47232234013
200,6955.624644536413,6955.624644536413,6989.117932195,7005.723293668673
201,6976.899032201128,6989.117932195,7005.723293668673,7019.792849133051
202,6996.271284048051,6996.271284048051,7019.792849133051,7038.125295066417
203,7046.003228324726,7046.003228324726,7050.576773737156,7064.02228480656
204,7068.909658512225,7068.909658512225,7084.8976387521125,7104.025370073865
205,7123.242047192902,7123.242047192902,7124.05809114585,7138.8425465251785
206,7178.835987986699,7178.835987986699,7178.947186312374,7193.184291336688
207,7227.474627734411,7227.474627734411,7230.941848431225,7252.32014691379
208,7247.528842621455,7247.528842621455,7252.32014691379,7270.92637016802
209,7276.745522708088,7276.745522708088,7280.426587484717,7298.137472374652
210,7293.038888360994,7293.038888360994,7327.887071762903,7342.594339108357
211,7314.172638711675,7327.887071762903,7342.594339108357,7358.644321987673
212,7335.099272616834,7339.460911271455,7358.644321987673,7378.677371157388
213,7373.367696897331,7373.367696897331,7379.666890564775,7393.750853289315
214,7414.637291264638,7414.637291264638,7424.394998300166,7437.86496723494
215,7452.254428663288,7452.254428663288,7456.0753455931845,7471.41754710834
216,7503.172829140213,7503.172829140213,7510.797663568545,7528.478192472393
217,7535.070951186918,7535.070951186918,7537.916652746739,7551.28368562767
218,7573.732801669719,7573.732801669719,7578.187014640487,7593.867033083331
219,7624.061940605078,7624.061940605078,7640.322703111252,7655.727343661698
220,7640.990995228478,7640.990995228478,7655.727343661698,7673.264336621451
221,7672.633470749127,7672.633470749127,7677.971498664075,7690.390389906241
222,7694.928746339776,7694.928746339776,7711.449104345829,7723.592297924549
223,7732.355762090032,7732.355762090032,7755.443161633408,7772.039653820442
224,7762.669832416171,7762.669832416171,7781.810798943271,7795.3273730639185
225,7820.907695356999,7820.907695356999,7823.854011555779,7837.357184695672
226,7870.7198905451405,7870.7198905451405,7878.584452158039,7897.23682717651
227,7897.5281677362545,7897.5281677362545,7898.667573688171,7914.340647914657
228,7931.424716443816,7931.424716443816,7941.449634280429,7955.36317692038
229,7986.380995260356,7986.380995260356,7997.515802990613,8013.228402432583
230,8001.979951477397,8001.979951477397,8023.184393517735,8034.600862516886
231,8054.45631293746,8054.45631293746,8078.096677943112,8096.1017328613325
232,8085.499778204144,8085.499778204144,8117.784948892333,8133.706153590653
233,8138.423348207881,8138.423348207881,8154.992786377801,8170.566656431523
234,8178.778116460165,8178.778116460165,8181.079620286418,8201.687731442697
235,8230.74599245944,8230.74599245944,8234.91741830906,8252.716677369328
236,8253.791659886248,8253.791659886248,8254.019518405583,8269.26293969441
237,8276.830255387134,8276.830255387134,8281.009947034436,8295.458903090452
238,8307.625016960576,8307.625016960576,8310.52167788739,8324.050212256858
239,8339.19262527649,8339.19262527649,8343.836644981022,8358.263886855175
240,8356.731980004997,8356.731980004997,8390.127555340856,8409.915963971078
241,8406.981338010391,8406.981338010391,8436.794711779308,8451.245103766463
242,8429.16295734428,8436.794711779308,8451.245103766463,8470.4193388716
243,8463.889647336955,8463.889647336955,8472.64246550791,8490.450399431125
244,8506.703507727623,8506.703507727623,8521.779188242559,8535.792470849921
245,8550.168593577378,8550.168593577378,8553.16681250122,8563.088286777998
246,8570.819783237906,8570.819783237906,8618.332897091736,8631.694136303446
247,8618.996817923224,8618.996817923224,8631.694136303446,8643.40993565767
248,8664.192906115035,8664.192906115035,8672.562555079216,8685.9322049338
249,8713.959148885917,8713.959148885917,8717.642771084931,8734.154243381512
250,8771.3578868716,8771.3578868716,8772.473208518379,8787.336491494181
251,8801.817629020494,8801.817629020494,8877.095399509577,8894.81230611554
252,8852.14972796222,8877.095399509577,8894.81230611554,8907.717438450773
253,8878.674930913035,8883.223420070166,8907.717438450773,8924.431059815539
254,8915.959266319918,8915.959266319918,8924.431059815539,8937.378158588504
255,8970.115450052617,8970.115450052617,8976.566295995495,8999.046256540936
256,9019.576117421979,9019.576117421979,9021.24163459094,9038.730637853707
257,9078.556467709648,9078.556467709648,9096.923516176485,9105.925017295138
