# file created by code in harbour_fns_1896438.jl
# file created on 2026-03-09 at 15:39:36
# parameter: seed = 1896469
# parameter: T = 30000.0
# parameter: lower_interarrival = 11.0
# parameter: upper_interarrival = 59.0
# parameter: mean_process_times = [11.0, 16.0]
# parameter: max_queue = [9223372036854775807, 4]
# parameter: time_units = hours
id,arrival_time,start_service_times,start_service_times,completion_time
1,0.0,0.0,3.1971865749843364,18.838549529531843
2,20.296616464865416,20.296616464865416,21.212317130126994,36.62336463277317
3,50.49987228423163,50.49987228423163,56.89865316959056,68.69117546586102
4,108.52767643905614,108.52767643905614,110.0314368577656,122.91917778358084
5,146.88034825435784,146.88034825435784,171.92331688081296,190.1342939286481
6,181.14753709847685,181.14753709847685,225.99324591535776,240.31591391879257
7,239.13920191586269,239.13920191586269,254.37559844742276,274.1133997844921
8,289.8350729629038,289.8350729629038,291.82528454719716,304.6955942502393
9,319.9321248805565,319.9321248805565,325.68100279536947,340.0875849336995
10,364.036046529295,364.036046529295,368.6438397807262,382.32799656895924
11,399.5214635389377,399.5214635389377,426.08940486076983,441.4450873583477
12,416.0309231376041,426.08940486076983,441.4450873583477,460.13253582731153
13,437.4590908729549,437.4590908729549,460.13253582731153,475.99354632244734
14,468.9863487031546,468.9863487031546,499.44705847590933,513.7751026855171
15,526.9306812666103,526.9306812666103,533.240089567996,555.0068383059828
16,554.8816938017887,554.8816938017887,564.3049094091026,580.3856496594086
17,603.4707833689782,603.4707833689782,607.2038645071052,627.6096673973115
18,626.0409604056047,626.0409604056047,636.4666069435063,649.8572873910836
19,659.5050279846523,659.5050279846523,660.6773664525494,679.0468866587573
20,710.242687881349,710.242687881349,714.9696241754492,731.6271138576732
21,768.989063833023,768.989063833023,772.5577236170949,783.6651416497128
22,825.9956735184626,825.9956735184626,841.3079474534159,857.6722577096522
23,854.1089695971046,854.1089695971046,872.9639552127045,890.1033893593329
24,900.8089563276923,900.8089563276923,901.1885625121482,918.1916799624905
25,927.5469644778021,927.5469644778021,941.4846668380809,960.3935674660033
26,978.7437167652315,978.7437167652315,985.5462862683718,1002.4117487364407
27,1004.16731008964,1004.16731008964,1015.3214309431418,1036.3149392451348
28,1043.1326395601156,1043.1326395601156,1071.694108195314,1088.1013475991997
29,1078.5550410491373,1078.5550410491373,1091.5837337830155,1104.063222266257
30,1097.770870711664,1097.770870711664,1104.063222266257,1117.3221250625818
31,1139.6437512447742,1139.6437512447742,1149.787138306074,1161.6889976175682
32,1151.449504057704,1151.449504057704,1172.4697455118787,1188.401617177271
33,1189.8618813656417,1189.8618813656417,1199.7524788383444,1209.4039737271414
34,1248.7321476160928,1248.7321476160928,1264.6884633422812,1277.7802049778884
35,1299.0911169854933,1299.0911169854933,1369.18527945097,1382.5494830659652
36,1336.7644295054881,1369.18527945097,1382.5494830659652,1396.9758160638805
37,1371.4029033589804,1371.4460010907549,1396.9758160638805,1413.715840423833
38,1401.7369960240667,1401.7369960240667,1423.2064777678506,1436.9863337953373
39,1448.020374016729,1448.020374016729,1464.1686705579407,1484.8015109433882
40,1492.6649665008845,1492.6649665008845,1495.0461099603085,1510.5861727880465
41,1530.3500305426678,1530.3500305426678,1531.997019226466,1546.2617024910876
42,1589.3086685784333,1589.3086685784333,1599.011010551935,1617.947348396039
43,1621.4373670159816,1621.4373670159816,1628.0713844579705,1641.4545988447196
44,1645.3031395882372,1645.3031395882372,1655.158653741045,1675.0389527686782
45,1663.3381678672265,1663.3381678672265,1675.0389527686782,1688.9201702113025
46,1710.0520292670296,1710.0520292670296,1721.9863851016714,1736.9015250824923
47,1764.547125103235,1764.547125103235,1776.4031803131134,1794.203112935329
48,1802.9584736409518,1802.9584736409518,1808.0755858252085,1825.305657925494
49,1845.84657907058,1845.84657907058,1849.149833005649,1867.0494818867674
50,1883.5896951265013,1883.5896951265013,1890.9126348381562,1907.6492713657092
51,1922.2542772259026,1922.2542772259026,1930.2034887546852,1950.0099462774429
52,1945.639550278756,1945.639550278756,1950.0099462774429,1967.6526686098314
53,1967.7142956567147,1967.7142956567147,1969.8656747550167,1989.44367831325
54,1994.3522601279594,1994.3522601279594,1996.2921125417877,2014.9899642327998
55,2025.2144876068828,2025.2144876068828,2040.826040875175,2051.406916612685
56,2050.5254187894557,2050.5254187894557,2072.12355434166,2094.094239768624
57,2097.0777691888475,2097.0777691888475,2097.390848804863,2114.1277290094663
58,2128.450646810564,2128.450646810564,2134.9026218632175,2152.856269930331
59,2171.6111931009846,2171.6111931009846,2190.116180158842,2200.582456003706
60,2225.6376998405326,2225.6376998405326,2225.9543360855228,2245.2067428574574
61,2281.4837180390114,2281.4837180390114,2305.933015408958,2319.6789586340437
62,2330.2954155652037,2330.2954155652037,2347.930451111442,2362.1981383332777
63,2388.1185291101774,2388.1185291101774,2409.4689677314555,2423.543300338848
64,2433.2337566281954,2433.2337566281954,2443.1228355455855,2456.6314915653825
65,2468.699665909577,2468.699665909577,2479.0209234460553,2501.063835923779
66,2507.2809764911494,2507.2809764911494,2517.576653372824,2532.7983970671594
67,2530.073683426065,2530.073683426065,2535.3483375080937,2550.56541427704
68,2562.9941243763205,2562.9941243763205,2565.416385938825,2581.283181452122
69,2617.3137053806163,2617.3137053806163,2627.1668129655477,2644.2806928868054
70,2628.8853058139985,2628.8853058139985,2644.2806928868054,2663.0066768036486
71,2678.8747503517493,2678.8747503517493,2688.523450519013,2707.0610368078524
72,2720.414189422735,2720.414189422735,2733.112444900751,2752.0322881285156
73,2774.600752119102,2774.600752119102,2781.1286267669793,2797.058943124164
74,2811.342852473726,2811.342852473726,2812.856506030563,2831.481164028627
75,2859.121222115138,2859.121222115138,2886.5579427019616,2904.1895632917717
76,2909.71010456631,2909.71010456631,2927.687930481301,2945.2074918871463
77,2938.418442287595,2938.418442287595,2945.2074918871463,2957.5527389484287
78,2966.961758821774,2966.961758821774,2995.624321162395,3008.564343132036
79,2987.4739592737715,2995.624321162395,3008.564343132036,3022.2157104246717
80,3029.5620454311806,3029.5620454311806,3063.2661333795254,3077.402555154757
81,3047.3651970417286,3063.2661333795254,3111.408111610932,3129.279089130769
82,3080.620234683671,3111.408111610932,3129.279089130769,3143.7209246006178
83,3117.953362142967,3117.953362142967,3143.7209246006178,3154.738451967516
84,3156.0491449828746,3156.0491449828746,3158.139498680785,3172.6749546948936
85,3177.935376573945,3177.935376573945,3186.4951414687725,3199.263577175029
86,3203.9024235169363,3203.9024235169363,3213.1948632579083,3230.882028557471
87,3243.810045125554,3243.810045125554,3253.521647482301,3273.5083224859445
88,3267.969908666482,3267.969908666482,3273.5083224859445,3290.6151863090986
89,3310.949048821971,3310.949048821971,3316.0461258462146,3327.2528656860613
90,3334.275751757928,3334.275751757928,3348.944620217372,3362.818091651595
91,3364.934581788686,3364.934581788686,3368.708592393741,3387.3247370565705
92,3400.862723901086,3400.862723901086,3403.8650964319477,3421.508161922438
93,3442.1782109091946,3442.1782109091946,3445.2992492675835,3459.882372900996
94,3473.228694259266,3473.228694259266,3552.28972320029,3562.577457655988
95,3528.2576421952213,3552.28972320029,3562.577457655988,3579.946426254511
96,3562.522648559453,3562.522648559453,3579.946426254511,3595.7217033891197
97,3616.632192494799,3616.632192494799,3629.018653087182,3643.944372560181
98,3651.843656301611,3651.843656301611,3661.0835144396924,3671.7501966582536
99,3708.137949156771,3708.137949156771,3710.7931171771697,3724.9643239452953
100,3741.0120096552305,3741.0120096552305,3756.5901606024254,3771.4066246959997
101,3772.9712801630344,3772.9712801630344,3780.4243377165603,3798.4987358893
102,3806.144389558068,3806.144389558068,3826.9666937038833,3845.6655125049465
103,3822.755225504692,3826.9666937038833,3846.9213304808345,3866.649270621247
104,3844.9260038547177,3846.9213304808345,3869.059168371704,3885.8652525645007
105,3894.956658994536,3894.956658994536,3904.1913871931342,3919.713732722231
106,3912.8296674503586,3912.8296674503586,3919.713732722231,3937.171999679327
107,3924.892942077732,3924.892942077732,3937.171999679327,3955.3672816733533
108,3983.537755811413,3983.537755811413,3991.874756769759,4010.9152105581325
109,4003.6724128521605,4003.6724128521605,4037.401816492227,4054.4271976639866
110,4054.374479582034,4054.374479582034,4076.8891557432325,4085.825725008215
111,4070.5149470147517,4076.8891557432325,4096.9236849149265,4114.045938860814
112,4113.476156231477,4113.476156231477,4121.771140783065,4137.013368156404
113,4138.365258206087,4138.365258206087,4165.530069841815,4185.031298251861
114,4194.8946070916145,4194.8946070916145,4206.210783306738,4222.801749393022
115,4231.609429911365,4231.609429911365,4263.217819815855,4279.969864160441
116,4271.91251148173,4271.91251148173,4303.897129415077,4320.519183024166
117,4322.682242288785,4322.682242288785,4327.053331465494,4344.353701607471
118,4370.496900325681,4370.496900325681,4383.472826344145,4399.99198233496
119,4398.571902565564,4398.571902565564,4400.099821557499,4419.938302904462
120,4446.740131473785,4446.740131473785,4451.8994275972545,4473.155187759366
121,4492.921907963741,4492.921907963741,4507.830172687427,4529.572180120997
122,4550.646464972299,4550.646464972299,4581.843966126588,4598.848183129938
123,4578.455310977305,4581.843966126588,4598.848183129938,4610.49064368733
124,4618.479796751964,4618.479796751964,4621.262532381192,4634.271468533714
125,4655.3225366999095,4655.3225366999095,4683.7873763714015,4699.066879533033
126,4710.94620085198,4710.94620085198,4714.155338679877,4726.78738644344
127,4738.454386850125,4738.454386850125,4770.768556456807,4785.134881164072
128,4794.795376126051,4794.795376126051,4795.0712277938,4813.021050954017
129,4826.281865292333,4826.281865292333,4826.35984319526,4840.999197986829
130,4877.452051539931,4877.452051539931,4892.72741197459,4910.3559599873315
131,4924.076014173791,4924.076014173791,4939.914617414079,4958.9672145718005
132,4957.550893323617,4957.550893323617,4985.486172452748,4998.374002512797
133,4984.474896710773,4985.486172452748,5008.050284867014,5025.885017378311
134,5030.714921212087,5030.714921212087,5050.780700299595,5063.891925161971
135,5072.8281812764235,5072.8281812764235,5100.316939123515,5112.192313598781
136,5110.455186534655,5110.455186534655,5114.327998842949,5134.951559759621
137,5123.084710664704,5123.084710664704,5136.4910608905575,5149.51153764976
138,5166.110354888285,5166.110354888285,5166.434219652121,5176.897651345311
139,5190.564359008895,5190.564359008895,5197.482645158758,5208.821851427096
140,5230.727851643768,5230.727851643768,5242.824715629745,5254.44844098595
141,5249.316575142329,5249.316575142329,5278.566882978928,5298.547134971456
142,5293.456717673289,5293.456717673289,5298.547134971456,5313.925621578347
143,5339.000817311291,5339.000817311291,5352.338742406424,5366.085369320935
144,5374.091631701627,5374.091631701627,5380.663273230688,5403.514211493806
145,5387.7788986375845,5387.7788986375845,5403.514211493806,5421.393063943712
146,5431.720721428913,5431.720721428913,5447.500280216041,5462.67265690039
147,5468.541670915302,5468.541670915302,5475.7767936942455,5489.69386071476
148,5482.228784541783,5482.228784541783,5489.69386071476,5503.212389295701
149,5540.597403622764,5540.597403622764,5562.017884631022,5575.831660673028
150,5582.204738223396,5582.204738223396,5588.544913846882,5604.153236130409
151,5631.273496187917,5631.273496187917,5634.290706491662,5651.842320030722
152,5647.179872010431,5647.179872010431,5669.647336132519,5684.063534830076
153,5688.402080993823,5688.402080993823,5695.790758955857,5714.603048019112
154,5727.36365265761,5727.36365265761,5747.59278275398,5766.962126502511
155,5753.268572065381,5753.268572065381,5766.962126502511,5785.88465863101
156,5780.02101469426,5780.02101469426,5787.3176196625,5805.51065462747
157,5809.244114088181,5809.244114088181,5818.3079076292415,5833.748133998807
158,5832.837951210975,5832.837951210975,5843.504486767858,5862.123923656275
159,5849.562494309245,5849.562494309245,5862.123923656275,5879.135735655551
160,5865.072454990696,5865.072454990696,5879.135735655551,5891.9153149939375
161,5881.578392767602,5881.578392767602,5891.9153149939375,5907.9235624887315
162,5903.788192982171,5903.788192982171,5910.979045931569,5924.609900306109
163,5946.101608830702,5946.101608830702,5963.890304159702,5982.962219688575
164,5987.005789971134,5987.005789971134,5995.958207125503,6010.162736888275
165,6016.011303468858,6016.011303468858,6019.224244235584,6032.030367804299
166,6068.116743240634,6068.116743240634,6072.536774162879,6080.825158244814
167,6106.5296982732125,6106.5296982732125,6140.171651905638,6154.318699684063
168,6148.698733305821,6148.698733305821,6155.6602369862585,6171.746749044179
169,6179.964666617959,6179.964666617959,6184.735440714236,6197.990812101062
170,6202.284722274687,6202.284722274687,6206.457813344882,6222.1193046711915
171,6258.350718810299,6258.350718810299,6274.79416993592,6291.942102529979
172,6293.063018089879,6293.063018089879,6296.907337978364,6317.147902477694
173,6320.179777664351,6320.179777664351,6324.50818702693,6346.098920036005
174,6360.790594153465,6360.790594153465,6364.977789457468,6384.501157173601
175,6391.398360463773,6391.398360463773,6410.719952513204,6428.21628157442
176,6438.6448555571615,6438.6448555571615,6457.476455282744,6468.380028030175
177,6466.152327180502,6466.152327180502,6470.707579206263,6488.818161056649
178,6484.873139349037,6484.873139349037,6492.958333949937,6507.613369544694
179,6513.013804309261,6513.013804309261,6525.083771509804,6539.73883527765
180,6564.180826586763,6564.180826586763,6578.158040152988,6594.887810588787
181,6600.908010344117,6600.908010344117,6610.856812803765,6620.861254631132
182,6620.48111570049,6620.48111570049,6645.657781524245,6664.3730612621885
183,6675.005048142155,6675.005048142155,6701.5700082309895,6714.170662367074
184,6701.197769733218,6701.5700082309895,6714.170662367074,6730.271847848105
185,6721.309635705188,6721.309635705188,6730.271847848105,6744.228684782594
186,6770.410121601515,6770.410121601515,6781.545558582142,6800.2633693946755
187,6812.437916266004,6812.437916266004,6817.786339887391,6829.997649287116
188,6830.775332954877,6830.775332954877,6836.322559626079,6851.357577118967
189,6871.436484155158,6871.436484155158,6900.270127431522,6915.2585596450435
190,6924.206632376948,6924.206632376948,6937.062995406463,6956.29729635799
191,6946.504805154597,6946.504805154597,6956.29729635799,6974.292120106497
192,6972.14522966614,6972.14522966614,6982.743747275996,6996.442919418376
193,7023.029849161452,7023.029849161452,7029.479320621119,7047.823986653886
194,7071.191468563801,7071.191468563801,7074.3959362811065,7092.545713675464
195,7104.204564281451,7104.204564281451,7109.495138924573,7124.893182543497
196,7162.366529977142,7162.366529977142,7168.455183890364,7178.9086484712125
197,7173.394078061055,7173.394078061055,7178.9086484712125,7195.879402757771
198,7203.985091133103,7203.985091133103,7206.391312486603,7221.141274849116
199,7245.582264500133,7245.582264500133,7260.522751647414,7274.942048972661
200,7292.84096669257,7292.84096669257,7317.776090398795,7330.991350342958
201,7304.141774411484,7317.776090398795,7330.991350342958,7347.775927871228
202,7344.442537051101,7344.442537051101,7347.775927871228,7367.449906759378
203,7365.124043438509,7365.124043438509,7367.449906759378,7379.968523661477
204,7413.271862537448,7413.271862537448,7413.654933840005,7428.554314603283
205,7446.770185422279,7446.770185422279,7453.900512684916,7470.8389023499085
206,7476.97922665534,7476.97922665534,7496.476968660767,7509.787083832267
207,7535.667386178486,7535.667386178486,7547.833791125688,7560.693905893669
208,7548.836283141897,7548.836283141897,7560.693905893669,7583.042359249448
209,7571.815379647848,7571.815379647848,7584.964418775851,7603.801010909208
210,7627.254984309529,7627.254984309529,7652.946339189357,7662.595472023583
211,7654.691876375619,7654.691876375619,7662.595472023583,7683.338325948293
212,7693.95600013757,7693.95600013757,7694.411445311937,7713.85672111806
213,7715.736656161992,7715.736656161992,7727.788570177759,7745.049424250291
214,7765.042189714635,7765.042189714635,7795.231626746781,7814.664296734612
215,7800.998526380246,7800.998526380246,7814.664296734612,7826.611980980112
216,7858.283640568689,7858.283640568689,7866.774313016222,7875.16646045084
217,7879.104114464564,7879.104114464564,7880.930317978711,7895.676801228841
218,7893.661167162022,7893.661167162022,7919.807779091796,7944.046153699959
219,7931.760316172423,7931.760316172423,7944.046153699959,7961.165491579912
220,7989.7022377019775,7989.7022377019775,7999.619534501018,8016.108875306652
221,8000.974890066889,8000.974890066889,8016.108875306652,8032.619780149393
222,8050.702924831118,8050.702924831118,8054.207534052134,8069.5840415548
223,8100.147691026783,8100.147691026783,8107.11647605787,8127.16766560365
224,8147.401192885789,8147.401192885789,8153.67211093415,8166.8163984848325
225,8173.290061905593,8173.290061905593,8176.361010185746,8189.943757710221
226,8210.806470564148,8210.806470564148,8215.727827083965,8233.330498128129
227,8224.284764721764,8224.284764721764,8233.330498128129,8250.663903239843
228,8247.721007262937,8247.721007262937,8269.893791207001,8290.723228727598
229,8290.842286682575,8290.842286682575,8294.190989321181,8314.26299287693
230,8322.584252504665,8322.584252504665,8357.867548517574,8372.617279069964
231,8339.203619250522,8357.867548517574,8386.524743403445,8399.85605339098
232,8388.396681772427,8388.396681772427,8402.688503718578,8421.98624867569
233,8426.615049135055,8426.615049135055,8438.469830542415,8454.97267268702
234,8467.295649209816,8467.295649209816,8498.567800598581,8511.183153833073
235,8481.586648178849,8498.567800598581,8522.905694441768,8536.898539843129
236,8540.387183601037,8540.387183601037,8549.966479447523,8567.16865366535
237,8584.365344091411,8584.365344091411,8594.742133087584,8613.51238997936
238,8597.859786245417,8597.859786245417,8613.51238997936,8630.780144757753
239,8615.846171090456,8615.846171090456,8630.780144757753,8642.978337730065
240,8647.95947953795,8647.95947953795,8654.471744735432,8672.836997221371
241,8705.631986541779,8705.631986541779,8723.61766700287,8734.258587142825
242,8720.36327156288,8723.61766700287,8734.258587142825,8748.069087482158
243,8735.842632724134,8735.842632724134,8748.069087482158,8763.965383917073
244,8756.303031405763,8756.303031405763,8763.965383917073,8778.865804899164
245,8789.378761088485,8789.378761088485,8802.820702631516,8813.815746057453
246,8811.358621244113,8811.358621244113,8816.911566861663,8832.29029683523
247,8854.328745715251,8854.328745715251,8870.229011950321,8890.369801621468
248,8901.6684816807,8901.6684816807,8911.95219930097,8928.890063745373
249,8931.298010891604,8931.298010891604,8939.450143360351,8955.710643982186
250,8983.987401436962,8983.987401436962,8987.941640205383,9002.925425889156
251,9016.981489777027,9016.981489777027,9025.232141407663,9040.224618710123
252,9053.439133571721,9053.439133571721,9080.27111253444,9099.988517277556
253,9065.438719185138,9080.27111253444,9099.988517277556,9118.450771859923
254,9109.247146333882,9109.247146333882,9125.102322510249,9138.937655495405
255,9124.681583049249,9125.102322510249,9141.74560081585,9161.441202831138
256,9141.784401937986,9141.784401937986,9161.441202831138,9177.826082520327
257,9197.048991500327,9197.048991500327,9209.16833983136,9228.140562359175
