# file created by code in harbour_fns_1896438.jl
# file created on 2026-03-09 at 15:39:45
# parameter: seed = 1896606
# parameter: T = 30000.0
# parameter: lower_interarrival = 11.0
# parameter: upper_interarrival = 59.0
# parameter: mean_process_times = [11.0, 16.0]
# parameter: max_queue = [9223372036854775807, 4]
# parameter: time_units = hours
id,arrival_time,start_service_times,start_service_times,completion_time
1,0.0,0.0,12.975550207090862,26.27531741333189
2,41.789927924108866,41.789927924108866,51.05317349986169,65.88809989726134
3,77.69138814172523,77.69138814172523,99.25811791173433,116.62905723838706
4,102.87893771252885,102.87893771252885,116.62905723838706,135.19892829770882
5,148.48578963251387,148.48578963251387,152.2711463387517,168.11749394495436
6,181.4164337048196,181.4164337048196,187.08830223688045,204.06331947955215
7,200.76851790046592,200.76851790046592,215.89483205502387,232.00991275029233
8,239.43499555854584,239.43499555854584,262.09917522325895,273.2896026527968
9,266.1398370009511,266.1398370009511,298.6986941270583,317.0238252840044
10,313.33051287234696,313.33051287234696,317.0238252840044,335.66396865272776
11,350.5622287294693,350.5622287294693,351.536870289028,367.7215543501044
12,370.8307125549766,370.8307125549766,372.25763647304296,389.3527128584113
13,417.32505957387247,417.32505957387247,444.8064487750962,456.0175474460911
14,430.7883556048443,444.8064487750962,456.0175474460911,472.47400710205096
15,467.85572760961395,467.85572760961395,472.47400710205096,485.5868193383938
16,497.30818811889225,497.30818811889225,517.8645287576808,538.5036652708213
17,545.6045852411311,545.6045852411311,546.974103635339,563.817894371614
18,580.0064026570276,580.0064026570276,584.3478330074995,605.2025865218623
19,600.5182880772049,600.5182880772049,608.5072228259859,624.5785342115304
20,619.5697669197933,619.5697669197933,629.3587713180997,644.8707549203918
21,667.2926896883317,667.2926896883317,672.3782256832966,684.7821017363403
22,705.0863053897009,705.0863053897009,705.5334468687953,724.8427177141642
23,724.4769220482747,724.4769220482747,729.2217803583263,746.737051315847
24,770.5397094451436,770.5397094451436,775.718031671171,793.3506906899422
25,821.9615019150733,821.9615019150733,823.2349321278283,835.1659351099212
26,835.5541034133987,835.5541034133987,847.7187243492019,861.805252433002
27,888.232673436502,888.232673436502,903.5787423772016,919.3253604674871
28,937.9839603136945,937.9839603136945,938.671915428138,954.727142066661
29,991.9282994711068,991.9282994711068,1001.2591932910959,1019.5546916060396
30,1037.2446393546857,1037.2446393546857,1059.4667663873113,1077.7638760329553
31,1095.283709528406,1095.283709528406,1147.7984440898613,1164.8777292429745
32,1113.8420762843152,1147.7984440898613,1164.8777292429745,1176.2815284429162
33,1135.0576668639746,1164.055275446901,1176.2815284429162,1197.5573728575132
34,1153.5187501994499,1165.5167409033575,1197.5573728575132,1211.018661855315
35,1209.1879516431516,1209.1879516431516,1214.1052340655729,1231.2648225263877
36,1241.220411116902,1241.220411116902,1251.841628383858,1266.397566602594
37,1269.4288596697338,1269.4288596697338,1272.2633076500456,1287.7336495384202
38,1326.5622339071517,1326.5622339071517,1326.7325539492535,1340.9613511707469
39,1367.7614077102844,1367.7614077102844,1381.9237066167884,1399.1402487247763
40,1400.1128930862953,1400.1128930862953,1425.5357832493453,1440.9782345865103
41,1415.007326355358,1425.5357832493453,1440.9782345865103,1457.8717065510211
42,1426.2670947353358,1435.0323090449579,1457.8717065510211,1474.7680870940344
43,1478.1905811163451,1478.1905811163451,1488.6898893457483,1501.1415142661297
44,1505.1235111677177,1505.1235111677177,1513.8012946949136,1530.0712084274878
45,1525.883626140099,1525.883626140099,1548.2304477337225,1562.877747641211
46,1553.4472153098513,1553.4472153098513,1566.6832979090163,1579.674742872243
47,1568.5098893898037,1568.5098893898037,1579.674742872243,1593.8118977185582
48,1591.4438993015892,1591.4438993015892,1612.734049830878,1624.3498058624252
49,1643.5867639933326,1643.5867639933326,1670.1156666715385,1688.9439345134035
50,1674.2047919879378,1674.2047919879378,1688.9439345134035,1706.6704287574923
51,1706.2695516529407,1706.2695516529407,1723.3311714465447,1737.9951440792488
52,1741.9661646890672,1741.9661646890672,1742.9108941692248,1758.4233749785508
53,1757.6260709357439,1757.6260709357439,1781.0129063121199,1797.8856586859406
54,1782.6114986280595,1782.6114986280595,1797.8856586859406,1817.2007230602348
55,1806.0864083173558,1806.0864083173558,1826.5731219061222,1841.309589281295
56,1834.24787023484,1834.24787023484,1846.0987470420284,1858.4470171200467
57,1873.600825480239,1873.600825480239,1883.1477223958489,1900.1427775455604
58,1902.527249354207,1902.527249354207,1903.678651761852,1921.3184016654807
59,1949.4597424093085,1949.4597424093085,1957.5045862366699,1972.5189858743352
60,1986.0676081590718,1986.0676081590718,1990.096458742408,2009.6980881189136
61,2022.329627724561,2022.329627724561,2025.6386319634187,2042.1850908368979
62,2039.7076640200091,2039.7076640200091,2044.359569288986,2058.792762863488
63,2062.619084424943,2062.619084424943,2070.686886199834,2083.3852916316287
64,2078.316643895133,2078.316643895133,2092.8989726050286,2116.1516933457474
65,2112.040739680211,2112.040739680211,2131.419682260074,2147.9968267725694
66,2150.362094928755,2150.362094928755,2153.6758676006602,2172.35123893796
67,2168.5766863710937,2168.5766863710937,2172.35123893796,2189.0568423618106
68,2220.0270467850737,2220.0270467850737,2225.800236550207,2241.0893262974773
69,2267.60703593576,2267.60703593576,2274.8061346102145,2291.478482702525
70,2288.3311687789565,2288.3311687789565,2299.9927509475674,2319.3653914652764
71,2341.4632552798957,2341.4632552798957,2363.3073974229183,2378.6284143753996
72,2366.730834868947,2366.730834868947,2378.6284143753996,2392.3663429687667
73,2415.882908417386,2415.882908417386,2448.653839434029,2466.819632241698
74,2462.8582371864245,2462.8582371864245,2469.169837182638,2482.4358081930636
75,2516.978807353677,2516.978807353677,2518.7226887486954,2536.613892313369
76,2544.282867750583,2544.282867750583,2548.9661419369413,2565.9266895690957
77,2573.8548919927725,2573.8548919927725,2578.912017388505,2594.763170916952
78,2590.828823857726,2590.828823857726,2594.763170916952,2609.16902801019
79,2608.242194121963,2608.242194121963,2610.235766827776,2625.403149217896
80,2652.076929549399,2652.076929549399,2668.7011946981506,2686.5971549491005
81,2675.2048655214544,2675.2048655214544,2686.5971549491005,2700.82970835525
82,2698.9177981836733,2698.9177981836733,2706.0936333093455,2722.650860809665
83,2739.353338646955,2739.353338646955,2743.016777605401,2752.8591788813133
84,2763.9585971848633,2763.9585971848633,2773.424872247974,2789.9032993450724
85,2801.450395621184,2801.450395621184,2806.765606114397,2822.227429229286
86,2820.6748666897556,2820.6748666897556,2822.227429229286,2842.154691939511
87,2872.1316831678914,2872.1316831678914,2874.16023859555,2894.290718575417
88,2895.33113854666,2895.33113854666,2899.7958163733833,2915.6538192578582
89,2941.445174775999,2941.445174775999,2944.8426833672524,2958.778236618417
90,2967.891934707183,2967.891934707183,2972.237410542743,2985.911598261602
91,3002.049782967809,3002.049782967809,3009.5840941656256,3024.5971315544107
92,3015.1433831120407,3015.1433831120407,3024.5971315544107,3031.2566568453963
93,3067.4853632299923,3067.4853632299923,3082.194696202121,3097.4196593309366
94,3105.170344828823,3105.170344828823,3110.893086738809,3128.546839925743
95,3132.9377861453786,3132.9377861453786,3140.3912027783613,3150.7034580316904
96,3173.88008727044,3173.88008727044,3192.453944191849,3205.338710591135
97,3216.2141883658655,3216.2141883658655,3219.145138340094,3235.3693496820465
98,3258.8888197181805,3258.8888197181805,3265.8784580472598,3280.3246558477017
99,3312.3547785066107,3312.3547785066107,3321.527734260671,3335.782992251332
100,3361.550469100105,3361.550469100105,3365.1570986594566,3383.963260622782
101,3408.432818551426,3408.432818551426,3410.7549021716213,3426.668996882607
102,3455.5276783318545,3455.5276783318545,3459.804478463247,3481.2816295431358
103,3477.401200634128,3477.401200634128,3481.2816295431358,3495.06290133239
104,3489.0945457824687,3489.0945457824687,3495.06290133239,3509.900059488519
105,3532.797897604542,3532.797897604542,3538.4116250444263,3561.077106689846
106,3571.7064531323863,3571.7064531323863,3577.3867708090697,3592.151694153343
107,3583.8743525580444,3583.8743525580444,3605.437656843924,3617.880164575628
108,3615.7121727055014,3615.7121727055014,3620.8530194606988,3634.189887713295
109,3659.991778164827,3659.991778164827,3666.23334446937,3684.09471440955
110,3686.6319344002427,3686.6319344002427,3722.9113138245048,3741.092286779738
111,3734.81095074333,3734.81095074333,3744.5734091314052,3759.282089234652
112,3759.2420277573356,3759.2420277573356,3761.6511713988034,3775.314634120239
113,3790.1554031890532,3790.1554031890532,3818.0378124645918,3829.8573363354476
114,3818.9305637890507,3818.9305637890507,3829.8573363354476,3849.5718218780025
115,3874.5564830728495,3874.5564830728495,3894.0342110434913,3907.3242065308013
116,3891.8643168078684,3894.0342110434913,3907.3242065308013,3918.4723814150784
117,3947.056839865205,3947.056839865205,3955.0108127781673,3976.6849479179878
118,3982.172566495435,3982.172566495435,4011.004850720056,4027.8920482578133
119,3996.3703901761796,4011.004850720056,4027.8920482578133,4042.2666632886926
120,4027.5549023595045,4027.5549023595045,4042.2666632886926,4055.9139003222026
121,4043.9618504995497,4043.9618504995497,4055.9139003222026,4071.7291203498467
122,4069.7891249732284,4069.7891249732284,4074.7104006968384,4088.3734799552344
123,4082.325354726857,4082.325354726857,4088.3734799552344,4106.9590974828625
124,4121.958921199992,4121.958921199992,4136.984506189449,4155.598433467582
125,4165.602620652779,4165.602620652779,4177.093561105908,4196.629256133729
126,4212.38428140649,4212.38428140649,4248.30545039923,4269.124892616303
127,4243.199229094006,4248.30545039923,4269.124892616303,4284.055092649743
128,4275.703260392497,4275.703260392497,4284.055092649743,4295.536835711675
129,4300.191181704093,4300.191181704093,4305.14688643632,4322.258816038211
130,4338.680045226227,4338.680045226227,4342.22859569148,4360.299439409429
131,4386.606194146031,4386.606194146031,4397.700262362069,4416.78515927605
132,4420.15950599377,4420.15950599377,4421.652371784036,4439.828224677727
133,4475.428599951912,4475.428599951912,4496.069224717339,4508.615774757026
134,4526.534356348349,4526.534356348349,4533.049260575977,4550.516807444404
135,4549.073175996834,4549.073175996834,4551.497697782709,4564.615819010718
136,4604.506409738258,4604.506409738258,4606.647062074838,4627.334196192021
137,4660.277957194329,4660.277957194329,4663.699424278678,4685.450770887203
138,4680.696640068469,4680.696640068469,4706.4527866260005,4726.368145115171
139,4704.404847748074,4706.4527866260005,4726.368145115171,4738.336799205866
140,4763.022350165661,4763.022350165661,4767.701039134696,4788.277045676102
141,4792.527050780365,4792.527050780365,4794.673581584161,4809.870714752329
142,4850.337219922657,4850.337219922657,4855.748694905359,4872.6562886203865
143,4897.000293765971,4897.000293765971,4915.502766476068,4932.205816539306
144,4941.59976773129,4941.59976773129,4966.311230389854,4984.211723033262
145,4963.690799393965,4966.311230389854,4984.211723033262,5002.006765414545
146,5022.352821463397,5022.352821463397,5035.818118227427,5053.22344415536
147,5079.607921814712,5079.607921814712,5085.172858428536,5100.2004411625285
148,5126.653634202814,5126.653634202814,5138.699914776261,5152.469460194708
149,5165.509159403797,5165.509159403797,5180.2851847110505,5196.321685042582
150,5208.321218392249,5208.321218392249,5219.236827127415,5232.492605439025
151,5229.462120612035,5229.462120612035,5235.444716238083,5247.686913691671
152,5285.25205099254,5285.25205099254,5286.58176716077,5307.179177990206
153,5341.069831992821,5341.069831992821,5341.66670739649,5353.436212130895
154,5380.485599524028,5380.485599524028,5381.480171522985,5393.554645732347
155,5429.658792863076,5429.658792863076,5440.71022785046,5454.836623749378
156,5457.684158136869,5457.684158136869,5464.348189403205,5484.059832162924
157,5513.717310384253,5513.717310384253,5515.557018697546,5528.296383030016
158,5537.66901543913,5537.66901543913,5542.742698142846,5557.039804648441
159,5563.872557706569,5563.872557706569,5571.829474007976,5585.234749236564
160,5620.716052218765,5620.716052218765,5637.22446054895,5651.222975789056
161,5669.641387458728,5669.641387458728,5672.272411466842,5685.105496852748
162,5722.260644274959,5722.260644274959,5738.657271618999,5757.032161172989
163,5752.038503542548,5752.038503542548,5757.032161172989,5773.596740138582
164,5807.135121996286,5807.135121996286,5813.39250900365,5829.0112629411715
165,5832.06939514728,5832.06939514728,5855.069874295335,5871.396486110659
166,5858.7993229568865,5858.7993229568865,5871.396486110659,5889.872183842408
167,5902.116479618579,5902.116479618579,5903.712291246751,5919.960968495333
168,5933.085667763449,5933.085667763449,5935.675216074632,5956.323850195628
169,5945.318845886797,5945.318845886797,5956.323850195628,5973.371829132671
170,5990.987595603876,5990.987595603876,6011.59635483908,6028.691066920163
171,6019.302863183115,6019.302863183115,6048.94762218812,6062.4549634760915
172,6049.76521421956,6049.76521421956,6062.4549634760915,6082.641883088364
173,6071.869952765801,6071.869952765801,6082.641883088364,6100.178479931298
174,6113.909290305159,6113.909290305159,6122.326927873491,6141.632431593686
175,6163.405963712183,6163.405963712183,6164.095226840223,6180.423865027803
176,6191.489199178695,6191.489199178695,6206.368435769668,6223.650068960973
177,6205.851658229375,6206.368435769668,6223.650068960973,6243.441441203901
178,6238.716426084784,6238.716426084784,6243.441441203901,6259.574741917061
179,6281.161771227109,6281.161771227109,6306.637201527248,6324.015535823358
180,6308.789657172084,6308.789657172084,6324.015535823358,6341.2865592478765
181,6364.828247340754,6364.828247340754,6374.850049938609,6393.972974230568
182,6395.191399522825,6395.191399522825,6407.360843646617,6429.108040247878
183,6423.746415272297,6423.746415272297,6429.108040247878,6447.068486636759
184,6476.951470161965,6476.951470161965,6479.329757389087,6494.560888491248
185,6501.977295082652,6501.977295082652,6506.035048701721,6522.241116912636
186,6526.930016453757,6526.930016453757,6538.651268180841,6553.665012781953
187,6546.28186296016,6546.28186296016,6571.091775096963,6588.12530033831
188,6586.99433089288,6586.99433089288,6604.317104678751,6622.339119703079
189,6599.0115204871945,6604.317104678751,6630.135102043315,6644.173343166395
190,6635.247400579264,6635.247400579264,6646.65897946748,6660.31256481097
191,6653.969735245831,6653.969735245831,6660.31256481097,6676.981042673286
192,6692.450060462455,6692.450060462455,6698.358772586208,6712.853970508498
193,6738.452483611477,6738.452483611477,6743.467620762101,6756.444833135202
194,6772.1513882294275,6772.1513882294275,6787.215101788478,6800.740034158794
195,6794.987290987071,6794.987290987071,6805.747487303109,6820.618492609684
196,6812.376203072935,6812.376203072935,6823.581214557676,6842.152374506686
197,6837.941720959311,6837.941720959311,6851.912630530617,6866.472971582403
198,6851.5899779923,6851.912630530617,6866.472971582403,6886.271499330379
199,6896.700341491562,6896.700341491562,6896.909424830437,6912.937365472935
200,6926.263024800749,6926.263024800749,6933.017520268654,6952.09177420144
201,6942.444235586056,6942.444235586056,6978.217680292834,6989.718026522568
202,6968.898744178335,6978.217680292834,6989.718026522568,7011.643959608628
203,6994.917410112557,6994.917410112557,7011.643959608628,7027.930326573327
204,7052.119425114075,7052.119425114075,7068.901621494118,7089.634415102191
205,7103.460998356918,7103.460998356918,7111.370305767895,7125.886259938928
206,7138.542026871698,7138.542026871698,7145.300751664063,7164.125622776239
207,7181.0290511126905,7181.0290511126905,7207.427165692584,7220.405348646757
208,7206.37286696484,7207.427165692584,7220.405348646757,7234.218761455767
209,7250.711013096183,7250.711013096183,7255.547329100548,7267.5120167015875
210,7303.564328623221,7303.564328623221,7326.64322904357,7339.114024269315
211,7345.099074167502,7345.099074167502,7351.953799189029,7362.936477642014
212,7386.733847207449,7386.733847207449,7404.994075595167,7424.140672644492
213,7433.627531778135,7433.627531778135,7440.39157675351,7457.385522124627
214,7482.238433953846,7482.238433953846,7489.8076478776,7503.506376299794
215,7511.051039055158,7511.051039055158,7522.1623729021985,7535.826093902848
216,7566.94651874619,7566.94651874619,7595.796188279285,7609.486784954964
217,7603.080602018389,7603.080602018389,7613.756546802986,7626.494491841224
218,7647.178971606217,7647.178971606217,7654.493332316311,7673.310851464702
219,7681.035281514705,7681.035281514705,7687.626602642417,7698.123565698293
220,7713.078982595498,7713.078982595498,7729.189515150096,7744.29191071457
221,7755.8279509588665,7755.8279509588665,7760.583819276513,7781.337032982263
222,7789.765717214659,7789.765717214659,7794.59655057257,7805.743536466452
223,7820.962079620559,7820.962079620559,7833.038664575862,7847.498781484441
224,7864.13887716406,7864.13887716406,7876.824635545017,7897.338107585198
225,7908.2913224328495,7908.2913224328495,7929.638174954211,7946.327719804841
226,7927.4676377937085,7929.638174954211,7946.327719804841,7967.240246285826
227,7942.674074687923,7942.674074687923,7967.240246285826,7985.073021990812
228,7955.593876593838,7961.43450842761,7985.073021990812,8002.46297133127
229,7970.91929127542,7982.292890171269,8003.456525352802,8017.485715856763
230,7992.735775699897,8003.456525352802,8017.485715856763,8031.72942211848
231,8032.633043195717,8032.633043195717,8059.387278859499,8076.872958502605
232,8079.52302272152,8079.52302272152,8081.213296080732,8096.211012799622
233,8101.54872812896,8101.54872812896,8113.320399929612,8133.315505563602
234,8113.250644312663,8113.320399929612,8133.315505563602,8146.004841652555
235,8152.86264218626,8152.86264218626,8156.5443914811485,8178.247494687228
236,8194.833651601079,8194.833651601079,8202.858161332713,8223.250608330984
237,8214.424546194059,8214.424546194059,8223.250608330984,8239.65434536583
238,8264.948066179591,8264.948066179591,8279.916868417782,8293.55781290671
239,8306.305075774286,8306.305075774286,8307.879163858643,8327.003942012821
240,8357.854319355985,8357.854319355985,8358.793445849984,8370.24056598432
241,8369.450391398483,8369.450391398483,8385.34543734807,8400.233581596427
242,8420.730313119233,8420.730313119233,8433.709491055983,8448.086134033247
243,8447.89427535578,8447.89427535578,8451.562902549837,8472.046855421957
244,8496.011277176447,8496.011277176447,8499.429178091286,8514.222832798057
245,8535.108759099718,8535.108759099718,8547.360830502688,8565.666272253613
246,8589.7585906156,8589.7585906156,8607.07549210401,8621.991740065838
247,8647.018303661149,8647.018303661149,8687.480481678973,8708.80785399536
248,8675.889883653537,8687.480481678973,8708.80785399536,8726.146740845397
249,8724.59952577552,8724.59952577552,8736.222896255911,8748.309458393927
250,8773.068870057778,8773.068870057778,8785.821447345605,8804.096150278203
251,8799.615443350498,8799.615443350498,8804.852629387475,8818.246430797679
252,8829.452074152836,8829.452074152836,8838.882320178229,8857.676881348776
253,8880.488003924716,8880.488003924716,8893.398219962206,8913.609045221026
254,8922.518163621944,8922.518163621944,8933.934018435055,8947.86983779319
255,8979.502380750178,8979.502380750178,8987.543589054621,9000.378808313857
256,9037.59389354394,9037.59389354394,9044.263205735933,9056.26036329052
