# file created by code in harbour_fns_1896438.jl
# file created on 2026-03-09 at 15:39:34
# parameter: seed = 1896443
# parameter: T = 30000.0
# parameter: lower_interarrival = 11.0
# parameter: upper_interarrival = 59.0
# parameter: mean_process_times = [11.0, 16.0]
# parameter: max_queue = [9223372036854775807, 4]
# parameter: time_units = hours
id,arrival_time,start_service_times,start_service_times,completion_time
1,0.0,0.0,0.8566629830753224,16.709864197986416
2,13.41467414413308,13.41467414413308,16.709864197986416,30.844378730008714
3,39.38323423828394,39.38323423828394,45.83113164501785,64.98617993594087
4,98.03765605138977,98.03765605138977,101.20382658617696,111.09709219496028
5,153.933330182591,153.933330182591,208.70043651362528,217.86083289763727
6,179.75981979379475,208.70043651362528,227.68810298851997,241.2151462161949
7,220.55899626202165,227.68810298851997,241.2151462161949,257.3349460296245
8,259.87358430258826,259.87358430258826,264.4168086863693,282.70094493848757
9,274.70145701494374,274.70145701494374,313.0924636728135,332.70588211324684
10,291.4284789480904,313.0924636728135,332.70588211324684,348.10213815605795
11,309.064233402737,330.5404770954918,348.10213815605795,362.4365764822727
12,344.78296656986873,345.9583708431885,362.4365764822727,379.88853091164543
13,390.8738468820101,390.8738468820101,391.34264937931033,409.20278051443216
14,408.8039982869154,408.8039982869154,418.1136478679464,429.40170167776097
15,430.32476931855405,430.32476931855405,433.15780236578087,445.9992417280088
16,453.2031689996847,453.2031689996847,457.53313296486607,475.92383510223056
17,495.3166235959509,495.3166235959509,515.7573252381917,537.7042935292375
18,538.7040404109874,538.7040404109874,550.7759060254306,573.7303267542159
19,559.165692237562,559.165692237562,573.7303267542159,590.9238563210911
20,584.2815936526902,584.2815936526902,607.568212860671,615.6857689722785
21,601.4462697523632,607.568212860671,617.2567321723162,632.7529668115974
22,652.9896520187212,652.9896520187212,657.5484566560672,674.016644051947
23,682.1588490815142,682.1588490815142,683.2695483875665,703.8689148816802
24,713.0957004649925,713.0957004649925,715.6500117358639,727.7505746934452
25,743.8251908208563,743.8251908208563,748.2588742343028,766.6197975656319
26,768.4516831940476,768.4516831940476,780.2674646042469,794.2689909792036
27,825.2787381221943,825.2787381221943,830.944248403655,847.916740281189
28,861.3350727547684,861.3350727547684,887.8688877353787,897.5086299425839
29,877.4998299196002,887.8688877353787,898.3190288774708,913.3957627288231
30,936.2586284452848,936.2586284452848,948.1611072792111,964.105285163684
31,958.0238450001369,958.0238450001369,964.1966917909648,979.1975547113062
32,999.4777163506023,999.4777163506023,1025.7315816402213,1047.5008724370214
33,1035.350448263411,1035.350448263411,1047.5008724370214,1066.1370834331235
34,1049.857125712937,1049.857125712937,1081.2155249765542,1100.6312158905278
35,1064.5668566222569,1081.2155249765542,1100.6312158905278,1113.9212189203217
36,1077.0333237349698,1085.550770148179,1113.9212189203217,1132.037219375231
37,1090.1670770536366,1094.9885184244272,1132.037219375231,1148.3721448911854
38,1111.138261068513,1111.138261068513,1148.3721448911854,1169.0857444946869
39,1151.1371187345412,1151.1371187345412,1190.1144685157476,1203.7243676770097
40,1164.5271163416594,1190.1144685157476,1203.7243676770097,1217.3084950822974
41,1207.2381395081925,1207.2381395081925,1219.828966304392,1233.0412690185192
42,1245.371227866059,1245.371227866059,1251.149625431582,1264.7905765218513
43,1273.1737924875677,1273.1737924875677,1276.3690829946154,1290.3192166689655
44,1301.4791409151876,1301.4791409151876,1308.0049943391537,1322.9625257666478
45,1313.235259284143,1313.235259284143,1322.9625257666478,1344.9541659684926
46,1355.3918883890815,1355.3918883890815,1367.5164062177575,1383.277013028141
47,1404.2450104052468,1404.2450104052468,1411.0352445999952,1428.4552276300988
48,1423.214979539361,1423.214979539361,1429.08436339012,1446.26169976912
49,1437.4283082885784,1437.4283082885784,1483.692786874706,1499.6388997065105
50,1475.0849369893908,1483.692786874706,1499.6388997065105,1517.928949723593
51,1533.5713832004296,1533.5713832004296,1543.8252158840533,1556.950688165347
52,1552.5242700856622,1552.5242700856622,1556.950688165347,1570.273597898838
53,1565.8097812358635,1565.8097812358635,1570.273597898838,1583.3573341881458
54,1606.94426855697,1606.94426855697,1611.0052955675415,1623.6591449094074
55,1654.8803888225257,1654.8803888225257,1663.6847835129934,1677.3460959755437
56,1702.7530571620596,1702.7530571620596,1702.9332316820123,1717.152995553193
57,1743.3557982892548,1743.3557982892548,1744.9874249191441,1760.175887444133
58,1799.9039726082437,1799.9039726082437,1803.2529037790353,1819.9239136889057
59,1847.6092561041075,1847.6092561041075,1849.7279017277276,1867.049216057701
60,1895.093289789623,1895.093289789623,1915.5024734466124,1929.8915127691487
61,1910.7668095097126,1915.5024734466124,1929.8915127691487,1944.572729122442
62,1969.0476690213018,1969.0476690213018,1982.7304739431881,2002.96763371951
63,1996.1521431772737,1996.1521431772737,2002.96763371951,2013.8680491188318
64,2028.7909781166727,2028.7909781166727,2029.1533141278494,2041.435881354749
65,2077.348737511731,2077.348737511731,2079.292260797913,2099.0258358921214
66,2090.7509560011877,2090.7509560011877,2103.655329704065,2117.634373608197
67,2112.0155502840826,2112.0155502840826,2121.0977755601643,2136.2158201412412
68,2162.952199754097,2162.952199754097,2172.071988116342,2185.7374827741564
69,2210.365899146567,2210.365899146567,2220.2608747757736,2236.958720721168
70,2261.606440809106,2261.606440809106,2267.4728626982683,2283.5563603725136
71,2288.3897300537938,2288.3897300537938,2288.8178687186855,2305.8979159716127
72,2303.1043295871987,2303.1043295871987,2312.594196360278,2331.9102407658174
73,2348.902516488104,2348.902516488104,2349.1883569937177,2360.8369756431493
74,2368.5471305427327,2368.5471305427327,2379.1979782917383,2395.911915226646
75,2407.0501407662314,2407.0501407662314,2420.615655758871,2437.7805440936304
76,2450.7300772465114,2450.7300772465114,2452.9653506236095,2469.690721774633
77,2487.7060362415473,2487.7060362415473,2499.7396110392697,2517.072133505071
78,2515.831127159005,2515.831127159005,2520.781794985377,2536.8463777306597
79,2550.793251895463,2550.793251895463,2562.1359835880476,2572.6396225318813
80,2608.2486707633034,2608.2486707633034,2622.9221471605497,2637.468911653129
81,2621.4668644391513,2622.9221471605497,2637.468911653129,2647.041007383621
82,2678.2554402524274,2678.2554402524274,2685.9984793901613,2701.818798234321
83,2702.624949310725,2702.624949310725,2702.9231491953115,2720.246185593027
84,2744.270053088502,2744.270053088502,2750.9837441842246,2767.5443474949316
85,2776.6668111910612,2776.6668111910612,2817.1253245115195,2831.993281546423
86,2791.29853859211,2817.1253245115195,2843.0373484851257,2859.209208935725
87,2804.7200818277015,2843.0373484851257,2859.209208935725,2869.305000921039
88,2826.999865595917,2848.2012827679628,2869.305000921039,2884.225930142299
89,2873.419896804838,2873.419896804838,2884.225930142299,2901.0735525484815
90,2905.887415325985,2905.887415325985,2912.7200678571594,2927.5165697813122
91,2946.227294096833,2946.227294096833,2947.5519945288256,2964.0013289387625
92,2961.2342468697157,2961.2342468697157,2965.2056219604924,2981.8839046174835
93,2991.3243853648482,2991.3243853648482,2997.7145889213834,3009.316127542953
94,3028.4558784820947,3028.4558784820947,3049.9807917525127,3068.1001072589715
95,3076.878564632802,3076.878564632802,3077.4257449981715,3092.312487946992
96,3121.8978294282056,3121.8978294282056,3127.5910183637934,3143.9697237127957
97,3169.247506754496,3169.247506754496,3172.0689821985916,3183.576973183075
98,3204.9756133634237,3204.9756133634237,3232.952871898674,3253.161432861047
99,3240.5411816959017,3240.5411816959017,3253.161432861047,3267.8664364278015
100,3287.0218870841873,3287.0218870841873,3306.739349336938,3323.6743253107725
101,3310.097862482706,3310.097862482706,3323.6743253107725,3343.898942765362
102,3329.410399113044,3329.410399113044,3366.308915469083,3386.3406996278413
103,3353.278947344949,3366.308915469083,3386.3406996278413,3397.6915804349655
104,3368.370474975919,3378.4211744101867,3397.6915804349655,3417.3568571309384
105,3418.4263311723253,3418.4263311723253,3433.7391878859976,3447.5561138597786
106,3455.250894241486,3455.250894241486,3461.266042454458,3478.535559160908
107,3488.6594762175196,3488.6594762175196,3496.7784355070226,3511.013060862742
108,3515.97186369011,3515.97186369011,3524.319227299771,3541.9015391830435
109,3548.711210919082,3548.711210919082,3556.011242715248,3570.953244300467
110,3603.627436509019,3603.627436509019,3609.0959043645694,3627.016739845603
111,3618.236567080188,3618.236567080188,3627.016739845603,3640.6247373450833
112,3667.658891479656,3667.658891479656,3670.2199685997252,3687.482255173874
113,3691.225839253183,3691.225839253183,3718.7056239808485,3732.5845606697953
114,3705.7890569865513,3718.7056239808485,3732.5845606697953,3749.2610237070053
115,3732.271527539013,3732.271527539013,3749.2610237070053,3767.720556299627
116,3748.560330125628,3748.560330125628,3768.1956063235257,3789.3445507617625
117,3788.1343295375655,3788.1343295375655,3790.46115773595,3807.7297238824094
118,3819.4846356926573,3819.4846356926573,3820.8621867825736,3831.362630501163
119,3871.4966409003932,3871.4966409003932,3872.8684111510784,3886.607157309136
120,3910.098589742443,3910.098589742443,3924.80670322241,3942.538972530718
121,3960.80105547829,3960.80105547829,3966.0414173464237,3981.8047652976015
122,4012.2684072755424,4012.2684072755424,4022.2811062122046,4037.0523611608014
123,4059.6644291404846,4059.6644291404846,4096.392527680087,4109.54412458807
124,4096.548660769756,4096.548660769756,4109.54412458807,4122.146600324571
125,4114.213681028217,4114.213681028217,4122.146600324571,4133.649062842036
126,4125.534900568891,4125.534900568891,4133.649062842036,4147.342882676747
127,4156.8430376020015,4156.8430376020015,4170.172150424985,4188.262515095862
128,4171.591891435908,4171.591891435908,4188.262515095862,4205.76962983792
129,4216.96172149765,4216.96172149765,4237.607447951916,4249.052690440094
130,4240.7217587837795,4240.7217587837795,4249.052690440094,4259.5797104628855
131,4272.288717448007,4272.288717448007,4274.142103700134,4294.804292470313
132,4301.427166847294,4301.427166847294,4308.0951357189415,4326.083345724399
133,4317.82946380243,4317.82946380243,4329.064780978497,4339.076513233147
134,4350.071777014425,4350.071777014425,4363.161782441424,4381.8930067457595
135,4398.507758678522,4398.507758678522,4401.8946673332075,4421.500814975112
136,4429.993072280732,4429.993072280732,4438.273992192537,4454.888466789959
137,4468.658217868954,4468.658217868954,4469.102420281844,4482.589860550228
138,4513.68786646784,4513.68786646784,4514.819157057134,4530.970272489778
139,4569.685354718878,4569.685354718878,4582.045318989474,4593.101442475287
140,4613.211292706356,4613.211292706356,4615.666132614719,4633.5186571280565
141,4638.3949027733315,4638.3949027733315,4660.172095662145,4680.7398740712215
142,4692.447738171866,4692.447738171866,4693.090648976598,4713.551951549681
143,4713.605330666899,4713.605330666899,4732.3926136865275,4752.282423306439
144,4741.947678599972,4741.947678599972,4752.282423306439,4763.417372426681
145,4755.763269207027,4755.763269207027,4763.417372426681,4780.700046778511
146,4775.496868042807,4775.496868042807,4784.868921181271,4801.1699949134
147,4800.481805407052,4800.481805407052,4815.555905209858,4834.170495108827
148,4857.589542842377,4857.589542842377,4862.28111737945,4877.388418127169
149,4877.724268581806,4877.724268581806,4880.14377141633,4896.9129670495395
150,4924.831395321725,4924.831395321725,4944.666950510347,4961.252874055575
151,4946.4679051823705,4946.4679051823705,4961.252874055575,4977.534703824897
152,4959.752465931803,4959.752465931803,4977.534703824897,4991.0867760419
153,4998.943811043233,4998.943811043233,4999.093813154359,5012.180503800827
154,5029.92996401268,5029.92996401268,5044.316768102501,5058.732895541229
155,5065.218646447415,5065.218646447415,5081.442292266886,5096.902744519596
156,5108.123930658659,5108.123930658659,5108.74892891582,5125.813594187199
157,5154.648448480634,5154.648448480634,5182.41842756394,5202.6139166775
158,5196.768308066662,5196.768308066662,5203.0427171732135,5217.476724038549
159,5244.340773703253,5244.340773703253,5266.8163760164925,5284.145448121924
160,5264.124236675,5266.8163760164925,5284.145448121924,5300.780708420999
161,5276.709955774842,5276.709955774842,5300.780708420999,5321.851121026222
162,5295.8317466885455,5295.8317466885455,5321.851121026222,5336.907824742193
163,5352.304707866538,5352.304707866538,5363.316741927783,5385.505487670395
164,5401.006688736744,5401.006688736744,5410.705527019542,5425.933924291411
165,5437.904344606579,5437.904344606579,5447.238317826875,5456.710980349932
166,5489.829600467214,5489.829600467214,5491.524385318094,5507.051507797725
167,5503.285749691838,5503.285749691838,5507.051507797725,5523.367603048997
168,5530.854442109052,5530.854442109052,5537.282746929499,5549.153330060554
169,5559.443611600982,5559.443611600982,5563.022441889429,5577.462957574327
170,5600.952425600098,5600.952425600098,5629.920903207868,5643.054467500145
171,5618.014846186351,5629.920903207868,5643.054467500145,5660.075155976942
172,5657.499510168805,5657.499510168805,5676.797019987841,5696.075976238891
173,5670.436836060285,5676.797019987841,5696.075976238891,5715.854451027199
174,5713.75033966139,5713.75033966139,5717.301385209453,5735.249869511646
175,5750.759638914137,5750.759638914137,5754.4490764440425,5769.414548791091
176,5768.850341576497,5768.850341576497,5774.001856586508,5790.8979394889875
177,5815.28447232014,5815.28447232014,5820.77843384045,5838.197407601488
178,5869.537559952602,5869.537559952602,5870.799184888661,5885.35487556502
179,5896.155899958629,5896.155899958629,5896.833116228184,5912.089941144592
180,5951.471917200169,5951.471917200169,5958.889493823954,5974.565328731053
181,5983.4466328579665,5983.4466328579665,5985.132880446087,5997.451905403674
182,6027.8842742202005,6027.8842742202005,6028.873135567233,6046.036655292783
183,6048.440326853897,6048.440326853897,6056.915466360353,6072.1082474800605
184,6093.070961584117,6093.070961584117,6106.347548004876,6122.614459297921
185,6136.029104070386,6136.029104070386,6147.871012862195,6164.087269709039
186,6193.782640110551,6193.782640110551,6209.428921652185,6227.317603867599
187,6236.150008872363,6236.150008872363,6241.974285218861,6261.152990283554
188,6251.497279988151,6251.497279988151,6269.610732459209,6284.462283772174
189,6283.47398142971,6283.47398142971,6284.462283772174,6304.083706445392
190,6303.24375884604,6303.24375884604,6324.40680290615,6341.539128187416
191,6324.311147520131,6324.40680290615,6345.31142981034,6357.821706614046
192,6372.559389037404,6372.559389037404,6392.017192809707,6408.435235290744
193,6407.986730099738,6407.986730099738,6419.122873355706,6434.205474235715
194,6444.387665566759,6444.387665566759,6457.072672154232,6468.6632511001735
195,6502.502303265336,6502.502303265336,6515.3678951789025,6530.17757262124
196,6549.926323029575,6549.926323029575,6551.76744323459,6566.498435565289
197,6570.978321277521,6570.978321277521,6571.925977880662,6584.506123299864
198,6593.150192400829,6593.150192400829,6594.351523923903,6611.380178484978
199,6617.355032464556,6617.355032464556,6627.025623159106,6645.616136520815
200,6670.234989858339,6670.234989858339,6672.2306173071465,6694.290071918194
201,6727.13123446937,6727.13123446937,6727.572150445595,6744.626600391255
202,6777.7106520111965,6777.7106520111965,6788.506809947141,6805.109284793442
203,6803.301320296488,6803.301320296488,6813.143236965464,6831.428254930766
204,6821.617949514427,6821.617949514427,6837.566919875091,6851.344943302578
205,6869.327415471264,6869.327415471264,6875.751656122534,6887.884271422894
206,6901.010673337833,6901.010673337833,6912.80198309223,6932.567363546426
207,6943.416478389386,6943.416478389386,6954.376295660312,6970.772551910064
208,6971.953961127145,6971.953961127145,6990.909386219368,7003.30145462782
209,6990.666533478608,6990.909386219368,7003.30145462782,7019.682411865244
210,7019.748056957655,7019.748056957655,7022.612196566768,7042.952645412368
211,7057.9382555409275,7057.9382555409275,7072.976980552947,7087.342796505151
212,7096.201201748883,7096.201201748883,7097.365930444523,7110.06067583815
213,7141.893851562411,7141.893851562411,7154.889274975172,7174.3241930982795
214,7157.446654235588,7157.446654235588,7174.3241930982795,7189.179770689257
215,7200.409264261031,7200.409264261031,7202.246863124021,7214.851978667189
216,7230.028980470804,7230.028980470804,7230.297396044388,7248.534407645191
217,7269.693831613761,7269.693831613761,7279.746092843305,7301.608460008922
218,7303.33939167272,7303.33939167272,7321.010746672705,7339.097188261974
219,7360.805158617664,7360.805158617664,7377.885438860754,7396.583374780262
220,7405.138453878356,7405.138453878356,7412.94488397727,7428.422186019274
221,7420.885784094206,7420.885784094206,7429.741914908695,7444.189722477476
222,7456.702962515874,7456.702962515874,7457.487362573923,7473.762038625283
223,7467.885231133934,7467.885231133934,7473.762038625283,7492.851594131095
224,7520.824748138484,7520.824748138484,7544.76310125726,7562.574309049931
225,7561.450539033776,7561.450539033776,7562.901065953106,7584.137302742933
226,7585.2664410726065,7585.2664410726065,7589.87672427177,7605.523986399141
227,7640.670554909954,7640.670554909954,7649.009267429505,7668.916645758306
228,7663.708037326899,7663.708037326899,7679.026787213087,7696.848475635778
229,7676.201298114535,7679.026787213087,7696.848475635778,7715.713370522195
230,7694.67005264223,7694.67005264223,7715.713370522195,7738.038653250784
231,7741.49243908566,7741.49243908566,7752.051100690039,7768.449752820298
232,7796.963627832899,7796.963627832899,7802.670036902753,7823.456700283677
233,7842.627610355859,7842.627610355859,7878.351987065637,7894.491054362499
234,7861.632661195551,7878.351987065637,7905.76927914796,7916.667530115559
235,7917.921752804851,7917.921752804851,7927.8679778921,7940.753082102804
236,7931.120461831857,7931.120461831857,7955.199320443582,7971.8373969922595
237,7946.821772413374,7955.199320443582,7971.8373969922595,7985.677652449777
238,7990.327426974732,7990.327426974732,7994.3109178738205,8011.591140036396
239,8014.108230745166,8014.108230745166,8014.661760769215,8029.3097534569815
240,8031.608968682113,8031.608968682113,8045.439550953516,8060.391962028084
241,8056.43970642076,8056.43970642076,8069.054871913561,8088.209451154399
242,8096.869119120085,8096.869119120085,8103.0262644728,8120.2967894894055
243,8128.117947832889,8128.117947832889,8158.0989918736,8174.981707079148
244,8186.368068345268,8186.368068345268,8188.820220649462,8208.674986283375
245,8217.444674242424,8217.444674242424,8218.183021910825,8233.550548444979
246,8236.218795610255,8236.218795610255,8246.782716262913,8259.96190293977
247,8268.248791389295,8268.248791389295,8268.50866786704,8282.35197285841
248,8291.947523279634,8291.947523279634,8297.372217359714,8313.096596606634
249,8316.766612841022,8316.766612841022,8327.909509976833,8345.748743952934
250,8342.16528318064,8342.16528318064,8363.400257505,8377.479547415222
251,8390.101570898298,8390.101570898298,8391.33091193472,8404.197982261898
252,8438.811216974473,8438.811216974473,8448.339735481763,8458.274373894947
253,8457.554594543197,8457.554594543197,8465.288978879622,8478.610542044627
254,8490.644282083658,8490.644282083658,8504.371834419053,8522.602773123714
255,8538.397722623464,8538.397722623464,8542.855045554,8557.932703153016
256,8569.359545977686,8569.359545977686,8580.781157550467,8592.817853257036
