# file created by code in harbour_fns_1896438.jl
# file created on 2026-03-09 at 15:39:40
# parameter: seed = 1896528
# parameter: T = 30000.0
# parameter: lower_interarrival = 11.0
# parameter: upper_interarrival = 59.0
# parameter: mean_process_times = [11.0, 16.0]
# parameter: max_queue = [9223372036854775807, 4]
# parameter: time_units = hours
id,arrival_time,start_service_times,start_service_times,completion_time
1,0.0,0.0,4.699558823443905,22.991669440720337
2,21.144100961911867,21.144100961911867,27.209184115209304,49.08293990684716
3,44.341474003882155,44.341474003882155,49.08293990684716,63.57390128847451
4,71.40887654952978,71.40887654952978,94.02084262561473,111.65221134744866
5,121.64473541721334,121.64473541721334,126.91363043771499,138.47800993909735
6,171.8034852720113,171.8034852720113,175.781242678107,191.89160047970464
7,187.57810442018086,187.57810442018086,199.52748348533999,215.04769355866148
8,240.10073305883722,240.10073305883722,247.5439172154246,265.74034839915583
9,262.07997170612794,262.07997170612794,265.74034839915583,283.0480983524708
10,304.00957583031743,304.00957583031743,317.66108824887414,333.4965140224006
11,335.6923040224514,335.6923040224514,337.3601690087746,356.11922351264377
12,373.09068646333395,373.09068646333395,373.34330700014533,385.90544257160536
13,400.2508592299178,400.2508592299178,429.0250655696595,441.33240587624965
14,439.8464794213887,439.8464794213887,441.33240587624965,457.06439017111745
15,496.9914707434595,496.9914707434595,499.38152907147844,513.7748357024539
16,548.0124499244181,548.0124499244181,559.225470341256,577.5037588068176
17,593.3222047890375,593.3222047890375,607.9673652630835,623.1335697736818
18,613.279730602138,613.279730602138,623.1335697736818,639.8553680855949
19,632.0563620689715,632.0563620689715,639.8553680855949,658.0940704959975
20,662.8415790299572,662.8415790299572,663.6074641362851,679.5695773984264
21,705.6289495961933,705.6289495961933,720.5588542715824,740.0147395427687
22,727.0328830403179,727.0328830403179,747.409938760258,762.0649824299301
23,757.3459011205364,757.3459011205364,762.0649824299301,774.1149654247882
24,807.275123174559,807.275123174559,816.881711676349,837.0323340660645
25,848.4973888054672,848.4973888054672,868.1397277288066,883.4297286320411
26,881.0470980523335,881.0470980523335,910.8673280411913,924.7151236175678
27,902.7921776922383,910.8673280411913,943.4208720309471,955.7553579989553
28,927.5880834190874,943.4208720309471,955.7553579989553,976.2507522543192
29,973.6766377241398,973.6766377241398,986.4857318076172,1003.77191009943
30,993.6218841971926,993.6218841971926,1016.494390708415,1033.2874778338337
31,1010.9239996850181,1016.494390708415,1033.2874778338337,1048.3642910183567
32,1028.2048996986218,1028.2048996986218,1048.3642910183567,1069.768961409161
33,1071.7676430397712,1071.7676430397712,1075.40644064385,1094.8591938793825
34,1110.339640504834,1110.339640504834,1112.917502942305,1127.9769287443594
35,1164.2159383518044,1164.2159383518044,1166.4265923705736,1182.2755336955242
36,1216.6278616037087,1216.6278616037087,1220.0710153126122,1233.5611494210013
37,1262.2465899067222,1262.2465899067222,1282.2206586713114,1295.8122612887248
38,1299.4161232508445,1299.4161232508445,1304.3901059550162,1321.475005111088
39,1334.7508293662643,1334.7508293662643,1344.269336768416,1356.6248154606137
40,1346.072112949832,1346.072112949832,1356.6248154606137,1376.8550552973559
41,1376.0444235931443,1376.0444235931443,1384.6477649536903,1407.6414497957596
42,1425.8958345206668,1425.8958345206668,1438.237015786803,1458.7266465668133
43,1478.4119014833655,1478.4119014833655,1480.9936515936386,1504.5628433607712
44,1514.459880561226,1514.459880561226,1526.6376275791406,1543.4887092615527
45,1558.5443987300705,1558.5443987300705,1567.2095152985303,1582.9473264722426
46,1616.2811355928445,1616.2811355928445,1626.5671328324936,1643.9986375398896
47,1665.006064395335,1665.006064395335,1688.2228336226017,1706.0977036089782
48,1706.5622087072857,1706.5622087072857,1800.0397264299404,1813.7660638852772
49,1734.5162323592847,1800.0397264299404,1813.7660638852772,1823.2954780108903
50,1767.6109974038327,1802.4754038304604,1823.2954780108903,1838.2795955516283
51,1792.4754259005012,1806.4362423454008,1838.2795955516283,1852.6947956917493
52,1804.1708539715241,1814.179535958783,1852.6947956917493,1866.0236584584916
53,1837.3946153149188,1837.3946153149188,1866.0236584584916,1882.4412740382568
54,1867.5680796071429,1867.5680796071429,1899.7240873982887,1918.0918619436704
55,1924.6795643883438,1924.6795643883438,1935.1196990522906,1950.8296289710056
56,1963.8312350844917,1963.8312350844917,1965.7346625182313,1981.4341635073479
57,2003.779466402967,2003.779466402967,2008.5624192216637,2023.716297856092
58,2016.580513578573,2016.580513578573,2023.716297856092,2038.1511749972742
59,2046.2997814683815,2046.2997814683815,2047.7900699479649,2064.7284109998704
60,2094.2262895334966,2094.2262895334966,2099.6832375955355,2118.9925189745923
61,2148.2952572257973,2148.2952572257973,2152.1897176190128,2171.8681573523872
62,2194.0807794774355,2194.0807794774355,2196.9220722075192,2212.0381994916543
63,2211.993017874509,2211.993017874509,2227.6556747785817,2242.754880052494
64,2267.213045284338,2267.213045284338,2299.9527014518026,2322.5062451847202
65,2319.096713716947,2319.096713716947,2333.7314460270863,2342.620910122664
66,2330.5879705419597,2333.7314460270863,2356.9069654348295,2374.1903247213336
67,2348.4191594640033,2356.9069654348295,2374.1903247213336,2391.0740432067714
68,2406.4599532437533,2406.4599532437533,2417.714653258141,2434.3081704948795
69,2447.0888926929274,2447.0888926929274,2447.9053937521817,2460.272321516835
70,2472.718978265343,2472.718978265343,2485.0007940666137,2508.350753555095
71,2510.5802889864076,2510.5802889864076,2524.5951790235804,2543.0021775978594
72,2524.6144705353404,2524.6144705353404,2543.0021775978594,2563.1646145718523
73,2571.641045480067,2571.641045480067,2588.838394656068,2602.7533281263804
74,2583.9396917122876,2588.838394656068,2602.7533281263804,2621.143286913832
75,2626.9460632539603,2626.9460632539603,2631.7141797562435,2652.12222049461
76,2682.8492869590996,2682.8492869590996,2683.0456937300937,2700.0481340335173
77,2695.5777006519097,2695.5777006519097,2721.601689036391,2739.2862869632577
78,2744.294128559684,2744.294128559684,2750.218627983524,2764.6302786513356
79,2757.1711109164216,2757.1711109164216,2791.6656875726812,2805.7463879817315
80,2783.6623293382977,2791.6656875726812,2822.7639871834367,2835.6847113470644
81,2839.4661257652806,2839.4661257652806,2869.1093404821227,2889.3459891423254
82,2897.212066535341,2897.212066535341,2923.637534093964,2935.354001389727
83,2930.1236208076452,2930.1236208076452,2942.2877193852805,2961.853343275872
84,2981.74954346765,2981.74954346765,2993.1034269495613,3006.1418507746994
85,3014.0783268983255,3014.0783268983255,3051.5669089526623,3066.224947863779
86,3069.3445175594807,3069.3445175594807,3083.084192743693,3098.6696136331702
87,3103.4962341913338,3103.4962341913338,3107.236726191893,3125.678573960936
88,3142.8129941634916,3142.8129941634916,3146.462024572692,3162.394694882676
89,3201.5044517042033,3201.5044517042033,3202.4108116535886,3216.2629529912997
90,3260.371907293204,3260.371907293204,3280.478489467291,3291.75517043502
91,3311.5276244024312,3311.5276244024312,3322.3023528641224,3337.514908205826
92,3328.5242408455038,3328.5242408455038,3337.514908205826,3351.954157681202
93,3352.6980391326274,3352.6980391326274,3360.3562694358143,3376.28426397982
94,3411.6076213189494,3411.6076213189494,3418.317453602098,3431.0562130522494
95,3429.452379649167,3429.452379649167,3431.0562130522494,3443.7675499270285
96,3469.8612889213764,3469.8612889213764,3482.978889218735,3501.8477556840767
97,3501.8762473071806,3501.8762473071806,3514.638917490025,3531.4307289222434
98,3528.8639500861527,3528.8639500861527,3553.033530168943,3568.585259562195
99,3556.6831292153333,3556.6831292153333,3568.585259562195,3585.4991933672527
100,3585.966432915782,3585.966432915782,3588.4765351750193,3603.260704777198
101,3638.6918631587537,3638.6918631587537,3641.3816437579685,3657.2851222190293
102,3679.192531915081,3679.192531915081,3690.725286032098,3705.91821439254
103,3714.638110508237,3714.638110508237,3717.0297471860213,3730.620860589783
104,3737.0939838181625,3737.0939838181625,3743.3845264315955,3757.735561170659
105,3773.6233516819784,3773.6233516819784,3794.8380210093123,3810.9074296687872
106,3830.759879501876,3830.759879501876,3850.268326052037,3867.686649646579
107,3879.785106801848,3879.785106801848,3881.085208735269,3896.548477416438
108,3908.191125942788,3908.191125942788,3915.5572079668636,3932.653712639117
109,3919.8169723558944,3919.8169723558944,3932.653712639117,3946.5168765978547
110,3955.4084456820497,3955.4084456820497,3957.0710483871117,3967.010854280104
111,3982.0170749879803,3982.0170749879803,3984.504281713085,3996.323363433922
112,3993.6177812277097,3993.6177812277097,4000.465756410657,4015.4226602408594
113,4020.617820769327,4020.617820769327,4029.5739110206255,4047.78145845388
114,4077.2210740483392,4077.2210740483392,4103.27132717973,4116.324997027818
115,4118.033525940792,4118.033525940792,4129.614588775201,4145.134102965358
116,4166.40909551776,4166.40909551776,4175.573589184349,4192.86877240538
117,4213.183657855887,4213.183657855887,4226.936190073662,4245.813861966833
118,4241.405086060255,4241.405086060255,4250.858900011482,4268.630743429558
119,4266.77206634278,4266.77206634278,4306.415348395988,4323.921008539566
120,4296.563522880693,4306.415348395988,4323.921008539566,4342.331992723874
121,4350.075271414721,4350.075271414721,4353.536342224974,4369.701657562342
122,4399.643905088484,4399.643905088484,4435.809510541535,4450.387368717005
123,4426.336425212762,4435.809510541535,4450.387368717005,4466.28244117281
124,4445.69915491463,4445.69915491463,4466.28244117281,4482.123992085229
125,4473.275792647836,4473.275792647836,4504.176546532405,4515.148333927775
126,4503.276472497076,4504.176546532405,4515.148333927775,4533.765848102527
127,4519.702308270994,4519.702308270994,4533.765848102527,4548.702960078143
128,4546.099269223348,4546.099269223348,4567.467036739985,4579.492774929832
129,4562.24781984796,4567.467036739985,4579.492774929832,4597.589728513168
130,4578.514740093778,4578.514740093778,4597.589728513168,4616.3414584802795
131,4621.839672599459,4621.839672599459,4626.67938065612,4642.352576990831
132,4675.815047140878,4675.815047140878,4684.6181004760365,4701.482021452928
133,4693.074718819252,4693.074718819252,4704.141610815341,4719.897664608184
134,4717.9037800520855,4717.9037800520855,4735.285834013345,4754.002092935426
135,4748.321970673046,4748.321970673046,4786.2673108498475,4802.429619146068
136,4771.747983997265,4786.2673108498475,4802.429619146068,4818.234068423306
137,4787.519304847306,4787.519304847306,4818.234068423306,4837.956319279222
138,4802.087330022555,4802.087330022555,4837.956319279222,4857.878345463512
139,4856.835848172668,4856.835848172668,4871.011808523015,4889.492166967268
140,4899.2143513618075,4899.2143513618075,4899.856763375501,4916.458805071824
141,4956.985315483074,4956.985315483074,4966.325692629173,4979.898772918768
142,5007.601129179862,5007.601129179862,5025.621338942413,5038.93117419298
143,5019.065710763709,5025.621338942413,5044.2941524810085,5060.864169171575
144,5043.136571777965,5044.2941524810085,5072.1874710009215,5084.543870467558
145,5098.1721656888085,5098.1721656888085,5100.381650433595,5114.535107868918
146,5128.449825746696,5128.449825746696,5137.907690150517,5154.421717371552
147,5159.524252340798,5159.524252340798,5178.878980973683,5194.77692050288
148,5185.274189842033,5185.274189842033,5194.77692050288,5204.177047642389
149,5202.862395755895,5202.862395755895,5204.177047642389,5221.592363537982
150,5258.553784725095,5258.553784725095,5264.553517922151,5280.363279550277
151,5273.1951163569165,5273.1951163569165,5280.363279550277,5293.3862936351225
152,5315.638345177267,5315.638345177267,5347.533308820869,5359.035475855043
153,5333.310955297867,5347.533308820869,5359.035475855043,5375.113549998752
154,5389.03928506596,5389.03928506596,5411.718948067633,5422.746016217281
155,5417.305223466322,5417.305223466322,5422.746016217281,5434.909227807086
156,5459.3719590225965,5459.3719590225965,5479.599196764437,5491.797284805209
157,5472.292165168957,5479.599196764437,5491.797284805209,5509.600779582889
158,5517.858815531153,5517.858815531153,5529.830123235767,5552.3516835127
159,5574.340723375037,5574.340723375037,5597.961144303884,5620.64852262935
160,5631.283586751088,5631.283586751088,5640.158610792646,5658.038556977532
161,5670.036324649721,5670.036324649721,5674.972925119594,5690.193811844136
162,5709.271378240621,5709.271378240621,5713.568691341095,5732.925961249771
163,5754.649267372735,5754.649267372735,5756.319851866606,5772.105118073919
164,5795.089477820792,5795.089477820792,5798.226394572931,5813.0217083557745
165,5836.342995269362,5836.342995269362,5857.243500532223,5871.981817963813
166,5848.094760541806,5857.243500532223,5871.981817963813,5889.390089541996
167,5885.015507226933,5885.015507226933,5905.336008676912,5917.134759252286
168,5941.98247287964,5941.98247287964,5998.523237881806,6013.456815996063
169,6000.083076952651,6000.083076952651,6017.560901969847,6034.326397851076
170,6021.329546256633,6021.329546256633,6034.326397851076,6053.759555325271
171,6042.078175733204,6042.078175733204,6053.759555325271,6068.349586679267
172,6060.328526841885,6060.328526841885,6068.349586679267,6083.300259204388
173,6116.555437857592,6116.555437857592,6123.809250655587,6136.566907142787
174,6166.796330431278,6166.796330431278,6178.987262175644,6194.62348910571
175,6217.217291702721,6217.217291702721,6224.016258668655,6240.634282075342
176,6231.974632602679,6231.974632602679,6240.634282075342,6257.602941030269
177,6259.587802094869,6259.587802094869,6265.9897950546765,6285.470329566668
178,6310.114767007977,6310.114767007977,6336.672505573757,6356.088790482411
179,6364.613701106486,6364.613701106486,6383.5068875031075,6396.27571511158
180,6399.638478753677,6399.638478753677,6409.408941950412,6425.704107284727
181,6412.651663403849,6412.651663403849,6425.704107284727,6441.947359591502
182,6458.702100553742,6458.702100553742,6462.215439760242,6476.134816147293
183,6479.942723079226,6479.942723079226,6481.954274325961,6497.964177774342
184,6522.3922525886765,6522.3922525886765,6526.386165227577,6542.052262162186
185,6580.432712358401,6580.432712358401,6587.536788956304,6603.930713521447
186,6616.964635265122,6616.964635265122,6619.440825723289,6629.291814113414
187,6644.932640920059,6644.932640920059,6652.781506135171,6665.923832552248
188,6687.703587734953,6687.703587734953,6701.021000669626,6718.830784203695
189,6729.2660193743795,6729.2660193743795,6737.210234438607,6755.501862314338
190,6771.06338695655,6771.06338695655,6771.752606526436,6787.336210127076
191,6794.761813310885,6794.761813310885,6795.349130347118,6810.455201938452
192,6835.772905153147,6835.772905153147,6837.556168426827,6850.683451665486
193,6890.672394280607,6890.672394280607,6893.474804828772,6910.729782989365
194,6947.860708149377,6947.860708149377,6958.657402890483,6970.748899836261
195,6995.531580484283,6995.531580484283,6998.873768571693,7009.91282304551
196,7033.328462453057,7033.328462453057,7040.37262962939,7055.719678259775
197,7044.700306208238,7044.700306208238,7059.82960423901,7078.442029499082
198,7087.788954433639,7087.788954433639,7088.066821760019,7107.056421591108
199,7141.304414503423,7141.304414503423,7154.484276222118,7163.865105389168
200,7190.622922849119,7190.622922849119,7194.010445507554,7212.866181410953
201,7211.712063443138,7211.712063443138,7229.00163649135,7244.80399779781
202,7226.959459098381,7229.00163649135,7244.80399779781,7262.1381022403675
203,7241.036788202093,7241.036788202093,7262.1381022403675,7274.312781583408
204,7263.793949408208,7263.793949408208,7274.312781583408,7291.517195306118
205,7278.222932095568,7278.222932095568,7291.517195306118,7306.285849941854
206,7304.059253473963,7304.059253473963,7318.068499542213,7332.067468153257
207,7362.594417785115,7362.594417785115,7367.590107680402,7384.810538523297
208,7387.80980179678,7387.80980179678,7420.573173909185,7434.4879114213845
209,7433.952563969629,7433.952563969629,7434.4879114213845,7452.614563042531
210,7470.311536514167,7470.311536514167,7474.179909102063,7491.528001760209
211,7527.1602182298075,7527.1602182298075,7531.8294886429385,7548.083521665539
212,7545.223319556809,7545.223319556809,7552.5252091368175,7570.792212751088
213,7600.163720074198,7600.163720074198,7626.7596826502,7639.050410127529
214,7655.460544299578,7655.460544299578,7665.624433028906,7680.105970705552
215,7671.872990817661,7671.872990817661,7683.114652682539,7697.375179654193
216,7686.690820835036,7686.690820835036,7697.375179654193,7712.576867161144
217,7745.008479583058,7745.008479583058,7761.344972958241,7778.558078955324
218,7793.373650927354,7793.373650927354,7795.30040242314,7810.502366383726
219,7829.270897323339,7829.270897323339,7857.906358210722,7875.238408794193
220,7849.378966619975,7857.906358210722,7875.238408794193,7887.56203204665
221,7871.99340071742,7871.99340071742,7887.56203204665,7909.555683570794
222,7911.366293073794,7911.366293073794,7930.978425078093,7947.85656304973
223,7938.34165396017,7938.34165396017,7947.85656304973,7961.256611481324
224,7953.668876874811,7953.668876874811,7961.256611481324,7977.57317228175
225,7995.052315276661,7995.052315276661,8002.518527464939,8018.328968774717
226,8025.279658833391,8025.279658833391,8041.431015825432,8060.7619651501
227,8072.044286227615,8072.044286227615,8078.404711007797,8090.041368044764
228,8091.016810242189,8091.016810242189,8103.427627246479,8117.853018455755
229,8136.494170184483,8136.494170184483,8150.49627267684,8172.541304594368
230,8188.471501557702,8188.471501557702,8189.410491568993,8202.528104584078
231,8208.523422732607,8208.523422732607,8214.177045954335,8230.495497008451
232,8224.052414933682,8224.052414933682,8230.495497008451,8247.70707184228
233,8260.354577021812,8260.354577021812,8264.82146707453,8273.845205062771
234,8297.964416242003,8297.964416242003,8302.18245885341,8315.24644818879
235,8311.241951638029,8311.241951638029,8315.24644818879,8335.722421342318
236,8330.740706689685,8330.740706689685,8335.722421342318,8349.275118820948
237,8356.568283137995,8356.568283137995,8368.466959729152,8385.456310825133
238,8378.417371816187,8378.417371816187,8385.456310825133,8399.687443979225
239,8419.94297194286,8419.94297194286,8428.872567882869,8444.11198354425
240,8466.324778090406,8466.324778090406,8484.555249858227,8498.887041163269
241,8495.431124902216,8495.431124902216,8503.879302685164,8520.138218889428
242,8554.401279906666,8554.401279906666,8559.916660563675,8580.214536527768
243,8581.453408403388,8581.453408403388,8582.396195757372,8600.787026258628
244,8615.714586454855,8615.714586454855,8618.73927543248,8633.797067650075
245,8671.256857185608,8671.256857185608,8687.74451143491,8704.137316717972
246,8690.647367708269,8690.647367708269,8704.137316717972,8719.741529903018
247,8735.782165572022,8735.782165572022,8744.909554362597,8761.057677556575
248,8775.94387312437,8775.94387312437,8781.285165248175,8793.599317667675
249,8814.895420507579,8814.895420507579,8848.584740518265,8863.37459759161
250,8833.678998000863,8848.584740518265,8863.37459759161,8873.895545647636
251,8852.188166527056,8852.188166527056,8873.895545647636,8888.357724306752
252,8907.028002689878,8907.028002689878,8910.283433676088,8928.135299351841
253,8922.976416044,8922.976416044,8928.135299351841,8946.098223451545
254,8936.595479838086,8936.595479838086,8946.098223451545,8964.805508030742
255,8968.183465847344,8968.183465847344,8985.20707947702,8994.614718866056
256,9004.47714107499,9004.47714107499,9015.765222703269,9034.456546765237
