# file created by code in harbour_fns_1896438.jl
# file created on 2026-03-09 at 15:39:42
# parameter: seed = 1896557
# parameter: T = 30000.0
# parameter: lower_interarrival = 11.0
# parameter: upper_interarrival = 59.0
# parameter: mean_process_times = [11.0, 16.0]
# parameter: max_queue = [9223372036854775807, 4]
# parameter: time_units = hours
id,arrival_time,start_service_times,start_service_times,completion_time
1,0.0,0.0,5.239474462827964,17.449166422709844
2,36.204728935036385,36.204728935036385,70.52362196650955,84.7834109640979
3,84.43310874743919,84.43310874743919,87.73154145944018,107.1370105956984
4,125.57082236654225,125.57082236654225,132.93041461159447,150.79454114456087
5,178.39333249726096,178.39333249726096,217.52873073947217,235.59757721495043
6,195.68522250985026,217.52873073947217,244.45723034479275,264.05086414396527
7,221.29202206427968,244.45723034479275,285.9999483040029,308.0168135391321
8,262.83932507524474,285.9999483040029,308.0168135391321,322.2790204328938
9,287.3306687484995,287.88935708828444,322.2790204328938,340.78852136853266
10,330.64298214020516,330.64298214020516,340.94752610524506,355.2632924559886
11,356.3887954898348,356.3887954898348,362.4491396402806,378.0634009933457
12,406.4952925480778,406.4952925480778,414.2682696642812,429.2964434403859
13,432.84381215205974,432.84381215205974,442.1240339193525,453.29070506329634
14,455.33895284796046,455.33895284796046,461.454382104924,474.62872559479973
15,481.98935271240134,481.98935271240134,517.41210416837,534.6190873882244
16,505.2989595667096,517.41210416837,534.6190873882244,553.1527801663606
17,542.9090832024762,542.9090832024762,553.1527801663606,567.1688691370596
18,599.0061533294366,599.0061533294366,614.2408178565034,626.5577104434324
19,650.4279433173851,650.4279433173851,660.4687993597198,678.568355936077
20,706.3890781574283,706.3890781574283,718.1790630983118,734.3874846648242
21,760.8576155681102,760.8576155681102,783.315709688576,807.4382927255458
22,788.3551488258257,788.3551488258257,807.4382927255458,820.5032188383419
23,821.3765048390225,821.3765048390225,825.509697264546,847.835263985163
24,842.7912832384623,842.7912832384623,847.835263985163,861.4747545386631
25,872.4210652582374,872.4210652582374,878.1913453663818,895.0533757170117
26,912.0764652139795,912.0764652139795,931.1836467102477,945.7443904108936
27,958.860919483535,958.860919483535,972.4154637439636,991.0990641925108
28,981.630367580223,981.630367580223,1006.0511341621811,1024.0997263654858
29,1014.5851085934664,1014.5851085934664,1024.0997263654858,1036.215417619619
30,1029.1939667191507,1029.1939667191507,1046.4134765843178,1060.5336135363782
31,1065.3341807440397,1065.3341807440397,1069.9985194223189,1080.1276522114122
32,1103.9007366736278,1103.9007366736278,1123.0261981827368,1135.8276215220874
33,1120.388195225531,1123.0261981827368,1143.4680421337193,1157.887469838765
34,1148.4557926808343,1148.4557926808343,1162.0780907007938,1179.5170411401111
35,1196.7389129998305,1196.7389129998305,1238.9772478538846,1256.8361082987815
36,1238.4969330521646,1238.9772478538846,1264.0286586808722,1276.047303281721
37,1286.8436917927584,1286.8436917927584,1299.7377849358327,1317.3601458471921
38,1299.4356788023367,1299.7377849358327,1317.3601458471921,1330.6014376178935
39,1315.857643125523,1315.857643125523,1330.6014376178935,1343.6436129778538
40,1363.9875814104794,1363.9875814104794,1364.4716685276237,1380.7920111123144
41,1410.5078607223397,1410.5078607223397,1422.9338075451963,1441.3970104584946
42,1446.120126122082,1446.120126122082,1488.0542588115447,1504.0575563072166
43,1465.538458970024,1488.0542588115447,1504.0575563072166,1523.9066679701116
44,1495.1439286041875,1495.1439286041875,1523.9066679701116,1533.0433999805114
45,1531.4426756275057,1531.4426756275057,1533.0433999805114,1548.327520916348
46,1549.038113989028,1549.038113989028,1577.2582885185595,1591.5404303773523
47,1575.4014352664722,1577.2582885185595,1591.5404303773523,1608.1057317556795
48,1608.935821583899,1608.935821583899,1613.7404836764354,1629.2460869590907
49,1638.4985169045208,1638.4985169045208,1642.4076951793452,1655.5970956065728
50,1674.1174888042683,1674.1174888042683,1678.4817704782272,1695.3605850843473
51,1730.615761602742,1730.615761602742,1766.7417819386742,1781.2420363375772
52,1766.8141581485006,1766.8141581485006,1781.2420363375772,1802.6439050585323
53,1818.0530944494315,1818.0530944494315,1820.1788001073583,1838.8488937228801
54,1831.0164367561085,1831.0164367561085,1840.7816275836985,1859.1112996932932
55,1849.7758615672424,1849.7758615672424,1859.8002384045744,1874.207883530031
56,1873.764505922605,1873.764505922605,1877.8889264752734,1897.3692958548017
57,1892.5683397267314,1892.5683397267314,1897.3692958548017,1910.6493382903725
58,1950.7493346491642,1950.7493346491642,1960.988196460465,1979.5449602784754
59,1964.0991606132484,1964.0991606132484,1979.5449602784754,1997.4873854244424
60,2006.586686279066,2006.586686279066,2015.4787413252066,2032.4238194096356
61,2036.1889681293471,2036.1889681293471,2047.553329325623,2066.069399948267
62,2086.1819635511197,2086.1819635511197,2119.8473305356506,2140.0395932643933
63,2139.7990260280385,2139.7990260280385,2140.831257985782,2158.105408879043
64,2172.3248025372327,2172.3248025372327,2202.4307260374444,2215.1350305837923
65,2214.37991190858,2214.37991190858,2223.0145262993765,2240.7919407788013
66,2247.5387694295214,2247.5387694295214,2253.0188349847235,2269.823835071934
67,2298.5732707925627,2298.5732707925627,2319.341275064683,2335.8101738801756
68,2311.5129300844806,2319.341275064683,2335.8101738801756,2352.110052089346
69,2368.2934366364693,2368.2934366364693,2383.070994297205,2398.9827982332263
70,2388.750289258514,2388.750289258514,2430.1136430017395,2450.425954879393
71,2432.211627070134,2432.211627070134,2450.425954879393,2466.774545121316
72,2468.437289522868,2468.437289522868,2486.3608708440956,2496.817065197287
73,2501.0761854902807,2501.0761854902807,2501.422743383098,2515.7994813323
74,2557.250502667769,2557.250502667769,2559.952328386502,2576.0165847931926
75,2570.1092333823267,2570.1092333823267,2579.958253111859,2595.9297840898275
76,2626.1119959618104,2626.1119959618104,2663.5963430878037,2675.381824893686
77,2667.656216846167,2667.656216846167,2689.3931162912077,2703.9501431332787
78,2715.4360007828805,2715.4360007828805,2722.0719235395304,2739.21133158501
79,2746.0675213301924,2746.0675213301924,2754.4955273381524,2776.5096176525267
80,2798.0366668727283,2798.0366668727283,2799.1592368512243,2813.0086471941577
81,2830.4548998732594,2830.4548998732594,2839.2542387057806,2851.530607440316
82,2865.288731396839,2865.288731396839,2872.272536265172,2892.5032731942483
83,2912.3226788878924,2912.3226788878924,2914.715748614934,2932.2737834016843
84,2925.9865921031583,2925.9865921031583,2932.2737834016843,2945.553476001388
85,2958.3555471356817,2958.3555471356817,2958.364515495174,2974.6782954407927
86,3014.5648861781415,3014.5648861781415,3025.226332446761,3039.231929314644
87,3038.6859456692546,3038.6859456692546,3042.3583220463192,3057.764421816478
88,3090.2846721813266,3090.2846721813266,3120.534352153821,3136.5562973846527
89,3146.064734237438,3146.064734237438,3148.8851380820056,3167.949977615788
90,3168.6143162926437,3168.6143162926437,3170.592889045261,3185.4688772623267
91,3194.693871699921,3194.693871699921,3199.9774503783633,3214.201656674428
92,3215.121021219626,3215.121021219626,3229.8251639661394,3246.3002732514715
93,3250.731044678658,3250.731044678658,3254.700545594746,3266.64706921306
94,3308.6342362413907,3308.6342362413907,3311.8137234195055,3326.258321475467
95,3322.86057580351,3322.86057580351,3343.00406753612,3363.1615831518156
96,3344.665984182103,3344.665984182103,3363.1615831518156,3377.9308844416896
97,3380.1431904124347,3380.1431904124347,3386.5898602853968,3409.0024945170935
98,3415.72565158768,3415.72565158768,3432.7685058192465,3451.6739848797847
99,3457.4071559666268,3457.4071559666268,3487.0956990014633,3503.773056021519
100,3481.8132955442206,3487.0956990014633,3503.773056021519,3524.3885108638374
101,3538.9281025023206,3538.9281025023206,3541.868614586782,3561.9347124401465
102,3551.1788464115184,3551.1788464115184,3561.9347124401465,3571.8537979739012
103,3567.6339728564576,3567.6339728564576,3591.6564521159157,3604.521887341116
104,3618.9255446406805,3618.9255446406805,3634.0715792129668,3644.9208987001475
105,3648.0324799344758,3648.0324799344758,3648.5758500039947,3666.6071418211295
106,3703.543598239986,3703.543598239986,3728.2859004106163,3743.4227899673674
107,3743.5901444871793,3743.5901444871793,3748.080644590033,3766.87152169748
108,3778.624504848335,3778.624504848335,3790.916952634175,3813.728719408632
109,3827.0486965986665,3827.0486965986665,3828.712895459186,3836.5196718486027
110,3858.934175800309,3858.934175800309,3864.241226876911,3878.5280769774113
111,3875.2657352398155,3875.2657352398155,3878.5280769774113,3895.488250039477
112,3905.9972978196074,3905.9972978196074,3916.848499109901,3928.724903782219
113,3956.6358108824593,3956.6358108824593,3961.57581365211,3976.270027072711
114,4014.6280141410843,4014.6280141410843,4016.3641867369306,4034.924197319072
115,4056.2814269138885,4056.2814269138885,4068.3716765826853,4085.591662825425
116,4084.5926790786907,4084.5926790786907,4099.286673312592,4118.602000251675
117,4130.809318125234,4130.809318125234,4143.119336809811,4160.275699296857
118,4166.970783199045,4166.970783199045,4174.527550551946,4186.106301115636
119,4217.647310979264,4217.647310979264,4222.155563572679,4239.604338662703
120,4249.025271827374,4249.025271827374,4262.7523919354135,4281.771495718607
121,4274.071774185608,4274.071774185608,4287.789818672179,4300.7625458024995
122,4330.849410510072,4330.849410510072,4366.488950638039,4384.142445646258
123,4351.981774846568,4366.488950638039,4384.142445646258,4398.356916679046
124,4393.961487954931,4393.961487954931,4398.356916679046,4414.245311501644
125,4442.266928500942,4442.266928500942,4443.02534196894,4457.816413377165
126,4460.748135100681,4460.748135100681,4492.0996684853435,4505.108603495669
127,4516.468932824861,4516.468932824861,4536.622523115099,4561.817684363874
128,4569.501237678136,4569.501237678136,4572.821306122806,4588.012164823076
129,4612.82468396123,4612.82468396123,4628.500038938368,4641.549779619102
130,4657.428513896106,4657.428513896106,4678.124826051558,4700.31962749785
131,4709.003376778824,4709.003376778824,4712.316300220233,4727.57996364559
132,4733.134170506814,4733.134170506814,4733.8655760943675,4749.309761201952
133,4778.922254468626,4778.922254468626,4781.970289607562,4797.394640070425
134,4817.240292810706,4817.240292810706,4817.742178455837,4834.18672995937
135,4850.008010545239,4850.008010545239,4862.755766604756,4880.020057262396
136,4866.371581060025,4866.371581060025,4880.020057262396,4896.014211504992
137,4919.643479903785,4919.643479903785,4927.584384366479,4940.033626314199
138,4977.693830962411,4977.693830962411,4997.138613336444,5016.22881364925
139,5027.576514632594,5027.576514632594,5032.696233159657,5046.621760001843
140,5041.14376797996,5041.14376797996,5046.621760001843,5058.958859051901
141,5072.882085989559,5072.882085989559,5087.364723683796,5105.084955971914
142,5097.192634784516,5097.192634784516,5110.55299777171,5128.469131236301
143,5138.9732981274865,5138.9732981274865,5171.728994993769,5189.510412289596
144,5165.753515238933,5171.728994993769,5189.510412289596,5206.50509150213
145,5189.883432302824,5189.883432302824,5206.50509150213,5225.179040277353
146,5217.18627910352,5217.18627910352,5225.179040277353,5239.189149498041
147,5242.605228677162,5242.605228677162,5253.393420114159,5278.811594162021
148,5267.501778210497,5267.501778210497,5278.811594162021,5296.142898443596
149,5307.527424403507,5307.527424403507,5313.120591740626,5326.526952012121
150,5344.1807452505,5344.1807452505,5395.236648203436,5413.235953748136
151,5392.119306919303,5395.236648203436,5419.644038826512,5433.630243871569
152,5432.557009973234,5432.557009973234,5440.0446719482,5451.386348271661
153,5480.346175616945,5480.346175616945,5491.620172761787,5497.816747300909
154,5522.009578399529,5522.009578399529,5528.698683611299,5544.607550814922
155,5549.086137738207,5549.086137738207,5566.225446982925,5583.701876905695
156,5583.639189706459,5583.639189706459,5607.6854409641865,5624.326277611926
157,5596.268974530903,5607.6854409641865,5624.326277611926,5640.1451440851915
158,5619.6454529198645,5619.6454529198645,5640.1451440851915,5658.808402967445
159,5678.466940462947,5678.466940462947,5685.122689416797,5704.66955901226
160,5694.1611816026525,5694.1611816026525,5752.28390755789,5767.1807653390915
161,5745.151894743629,5752.28390755789,5791.386500734269,5811.953827931483
162,5776.598405740639,5791.386500734269,5833.774538190987,5847.936620680881
163,5802.680468270683,5833.774538190987,5847.936620680881,5862.040075068781
164,5831.649684580485,5835.017682089945,5862.040075068781,5883.774057483953
165,5856.397074048579,5856.397074048579,5883.774057483953,5898.351396193313
166,5867.52509246556,5867.52509246556,5898.351396193313,5910.407521118913
167,5917.28553003941,5917.28553003941,5920.815306913439,5935.851407091998
168,5942.625255206148,5942.625255206148,5944.227136003815,5959.489307035464
169,5993.277453372007,5993.277453372007,6003.8927936395185,6022.781239604814
170,6033.421748439013,6033.421748439013,6041.777577812572,6056.429867553991
171,6071.340753530954,6071.340753530954,6075.206645353213,6091.104899687321
172,6113.114638368051,6113.114638368051,6115.825789366241,6127.864516383058
173,6129.928468311377,6129.928468311377,6161.519106390237,6183.04562273095
174,6160.5526760618395,6161.519106390237,6183.04562273095,6196.55403706287
175,6171.7443164196475,6171.7443164196475,6196.55403706287,6213.322189862124
176,6223.800352519392,6223.800352519392,6242.72582203663,6259.468827189845
177,6264.843322642895,6264.843322642895,6279.158140238639,6294.222218266982
178,6292.074283157955,6292.074283157955,6295.5494132004305,6317.747642671668
179,6329.385384603671,6329.385384603671,6332.501662890564,6351.784382576959
180,6346.541722199721,6346.541722199721,6356.297593695335,6372.7897744068105
181,6389.123899969585,6389.123899969585,6399.121180052002,6408.470727698859
182,6424.601208086584,6424.601208086584,6426.729238402778,6438.19359825433
183,6474.831623793444,6474.831623793444,6475.0715707189065,6489.397143642996
184,6499.186496897316,6499.186496897316,6504.6769043397435,6519.710685156735
185,6547.734200009934,6547.734200009934,6551.025014188492,6562.849885063693
186,6562.65757515548,6562.65757515548,6603.439168616694,6619.584375671767
187,6612.802878734184,6612.802878734184,6619.584375671767,6635.621208520757
188,6667.844837705491,6667.844837705491,6672.042070511028,6684.133286691301
189,6687.998195255292,6687.998195255292,6696.059386658815,6713.914842271876
190,6727.591883641199,6727.591883641199,6750.276930100009,6771.0129121514465
191,6760.342813547195,6760.342813547195,6790.819058970892,6806.393840260746
192,6787.9933578129485,6790.819058970892,6809.560218792944,6829.304731710449
193,6806.897623560724,6809.560218792944,6829.304731710449,6840.650865067461
194,6819.094016246439,6819.094016246439,6840.650865067461,6857.028238698016
195,6848.18995503674,6848.18995503674,6857.028238698016,6873.597255662791
196,6891.625125907258,6891.625125907258,6906.453662774609,6920.84986054103
197,6937.679584342495,6937.679584342495,6939.20533545312,6956.2392504753525
198,6953.181295264697,6953.181295264697,7037.635115684321,7053.602046194295
199,7009.727138871449,7037.635115684321,7053.602046194295,7080.347210584971
200,7038.987293663308,7038.987293663308,7080.347210584971,7094.702346806771
201,7060.484070744792,7067.953485009088,7094.702346806771,7105.223857089553
202,7113.621736096059,7113.621736096059,7153.282343327139,7166.752314239515
203,7154.554639077276,7154.554639077276,7166.752314239515,7181.4380288834345
204,7206.323171827597,7206.323171827597,7219.900132222682,7237.171793850962
205,7218.931635873367,7219.900132222682,7237.171793850962,7244.6012676803375
206,7240.100146830667,7240.100146830667,7252.75167720107,7269.237505509757
207,7261.8919473868145,7261.8919473868145,7282.02052167451,7298.170789943054
208,7320.615841603244,7320.615841603244,7324.460196614434,7341.543825250697
209,7369.5193150424875,7369.5193150424875,7386.1745622401995,7401.66872592743
210,7408.000361758311,7408.000361758311,7414.01054227658,7435.032035042507
211,7460.280799028105,7460.280799028105,7470.080615627242,7489.533345724263
212,7493.886756801,7493.886756801,7520.864222101982,7537.5392132272245
213,7530.930833015027,7530.930833015027,7545.403979531887,7564.648451211001
214,7546.504687760921,7546.504687760921,7592.493625109285,7608.777400803823
215,7564.608282040804,7592.493625109285,7608.777400803823,7617.468162939339
216,7610.620158821552,7610.620158821552,7618.503357079521,7639.762310704688
217,7668.315826666826,7668.315826666826,7689.727726223027,7711.045700876367
218,7720.554219703853,7720.554219703853,7725.919292431667,7747.001480674389
219,7744.174319602194,7744.174319602194,7752.121530580824,7767.44027669941
220,7803.119310724534,7803.119310724534,7809.257701748415,7830.780458347285
221,7820.507575280102,7820.507575280102,7830.780458347285,7848.905551495244
222,7836.802420671688,7836.802420671688,7848.905551495244,7869.643967306197
223,7889.530816337495,7889.530816337495,7912.396678758136,7933.228144932665
224,7905.338028292109,7912.396678758136,7933.228144932665,7950.975665081064
225,7937.099145236472,7937.099145236472,7952.662569531876,7970.115342013758
226,7951.952725647045,7952.662569531876,7970.115342013758,7983.493866741371
227,7968.20578475964,7968.20578475964,7989.229973241079,8003.385176102757
228,8013.814044120768,8013.814044120768,8027.72772134732,8042.549800163626
229,8063.362653203546,8063.362653203546,8076.563962126527,8093.209235698215
230,8102.412101319967,8102.412101319967,8108.364609557379,8121.260450309684
231,8147.765980539806,8147.765980539806,8159.044781131325,8173.218135668373
232,8184.098693022418,8184.098693022418,8192.288366375757,8207.967564646557
233,8236.573730063272,8236.573730063272,8239.57303287527,8250.851979033036
234,8275.19387616965,8275.19387616965,8286.381149477953,8303.811275816306
235,8323.607084648462,8323.607084648462,8348.384029766248,8361.702587829192
236,8366.191556955651,8366.191556955651,8381.732739189056,8397.03948101631
237,8416.746214499168,8416.746214499168,8425.12887979058,8439.455039032973
238,8438.626214929176,8438.626214929176,8444.895360139686,8462.059098810178
239,8475.423620358446,8475.423620358446,8480.399379854924,8499.096413339967
240,8499.472779064088,8499.472779064088,8511.781623305744,8529.975078871681
241,8535.240281627093,8535.240281627093,8544.479367084345,8558.122661651485
242,8555.367264471482,8555.367264471482,8562.446494286081,8580.351050712778
243,8569.466698432348,8569.466698432348,8580.351050712778,8598.13542628225
244,8618.33966505408,8618.33966505408,8618.570786956034,8631.887954258915
245,8635.444905711913,8635.444905711913,8637.647077098825,8657.741946200307
246,8667.586961583156,8667.586961583156,8671.140654287276,8688.693444264589
247,8688.042841227763,8688.042841227763,8693.391388604905,8709.25274139862
248,8736.0661958313,8736.0661958313,8751.714683349745,8766.51452681773
249,8764.955684350049,8764.955684350049,8777.541966189301,8793.940141290543
250,8793.921150343162,8793.921150343162,8851.460995851576,8871.272930581454
251,8850.892157626438,8851.460995851576,8871.272930581454,8887.158770267863
252,8862.200191000771,8862.200191000771,8887.158770267863,8898.07710632252
253,8873.953814842185,8873.953814842185,8898.07710632252,8908.365972499629
254,8896.492685860163,8896.492685860163,8920.317630136582,8936.33713875115
255,8954.627948817017,8954.627948817017,8999.566585076138,9015.835559478039
256,8976.767690432056,8999.566585076138,9033.118535819736,9046.458583513491
