# file created by code in harbour_fns_1896438.jl
# file created on 2026-03-09 at 15:39:46
# parameter: seed = 1896624
# parameter: T = 30000.0
# parameter: lower_interarrival = 11.0
# parameter: upper_interarrival = 59.0
# parameter: mean_process_times = [11.0, 16.0]
# parameter: max_queue = [9223372036854775807, 4]
# parameter: time_units = hours
id,arrival_time,start_service_times,start_service_times,completion_time
1,0.0,0.0,11.303815827293375,30.51982982495842
2,42.86204183846201,42.86204183846201,61.34421809901919,78.38354356915035
3,59.54136832738132,61.34421809901919,78.38354356915035,92.62725718820505
4,87.57962628085701,87.57962628085701,93.86024872305755,110.72404158838083
5,109.96439967445005,109.96439967445005,114.80884966434091,132.35323020978385
6,124.15009625848835,124.15009625848835,140.9148823363646,153.77394841266334
7,159.09698008047548,159.09698008047548,163.10488329709787,179.87130107307286
8,205.64280751226852,205.64280751226852,209.79919275247158,222.60216914575048
9,244.5150957535464,244.5150957535464,244.95835347256988,260.34680913073606
10,263.38140356660523,263.38140356660523,268.43649882501876,285.2906978073431
11,301.89365503872494,301.89365503872494,326.4802844577291,343.74729340808796
12,336.6706237991457,336.6706237991457,345.1496305998221,364.2580425065143
13,387.6267033378058,387.6267033378058,393.95742313260877,403.97417204342247
14,398.75177071635477,398.75177071635477,403.97417204342247,416.51444572302626
15,447.88871921890507,447.88871921890507,457.25024303083757,468.77867826704374
16,468.05169816134367,468.05169816134367,479.4441453892589,496.6278579970089
17,510.51931861347737,510.51931861347737,515.9226874897188,530.6132148847106
18,559.3407080844056,559.3407080844056,562.182948470264,574.5628227300633
19,616.7351936911485,616.7351936911485,624.2123189421441,640.0446728573636
20,664.5530058028813,664.5530058028813,665.8769627834321,686.9530947769476
21,712.1211333137743,712.1211333137743,727.255455097806,741.7754068953318
22,757.8775149402085,757.8775149402085,764.3457336278324,777.1891719551563
23,784.5865097238881,784.5865097238881,814.3916809904874,833.0454152746208
24,842.0543468489766,842.0543468489766,855.3620442828338,869.8164411013028
25,888.1953080976386,888.1953080976386,888.1992434333533,902.3688583738698
26,933.2431451322493,933.2431451322493,948.3956985896684,965.8573853548576
27,955.6816380920761,955.6816380920761,986.5064222072278,995.7154483000354
28,984.0303194248975,986.5064222072278,996.6548675373938,1015.3669693913255
29,997.4145744661738,997.4145744661738,1015.3669693913255,1031.0627931528304
30,1039.0083264904852,1039.0083264904852,1046.8606709988314,1055.9334444472086
31,1071.7677666111654,1071.7677666111654,1077.6115076390308,1094.2685019509606
32,1127.1987529283608,1127.1987529283608,1152.5121275859672,1170.7772137107802
33,1142.5057706748255,1152.5121275859672,1170.7772137107802,1190.6147900770454
34,1177.374108626559,1177.374108626559,1190.796170775358,1207.3071515661377
35,1234.242076459197,1234.242076459197,1280.0463253499827,1296.4312465375071
36,1265.8173835312177,1280.0463253499827,1302.199932182912,1318.7714563122822
37,1311.353431611017,1311.353431611017,1318.7714563122822,1337.7286464036056
38,1328.0597902651605,1328.0597902651605,1337.7286464036056,1352.0570856129568
39,1368.9567068240428,1368.9567068240428,1393.1751121444777,1405.430018363328
40,1417.2947068528938,1417.2947068528938,1423.3972549595399,1438.0313758203763
41,1454.7682567229363,1454.7682567229363,1459.3441517898937,1475.2386508775103
42,1467.2366521333374,1467.2366521333374,1475.2386508775103,1493.7220249434897
43,1506.8353401016743,1506.8353401016743,1531.7070764246107,1548.1329997484872
44,1559.1359774133336,1559.1359774133336,1575.5348868558162,1590.9449143544646
45,1598.1980709616196,1598.1980709616196,1603.7245344294904,1617.561256016271
46,1642.4156093363706,1642.4156093363706,1673.4279871693648,1689.233583045843
47,1657.3598959250412,1673.4279871693648,1689.233583045843,1702.9730715129704
48,1678.9449762208712,1681.010723487032,1702.9730715129704,1722.0961483205567
49,1700.6117163754398,1700.6117163754398,1722.0961483205567,1733.4282785677874
50,1712.3509649116415,1712.3509649116415,1733.4282785677874,1755.2286793250144
51,1739.5109341639018,1739.5109341639018,1755.2286793250144,1770.5193066626498
52,1766.5907885539136,1766.5907885539136,1792.684252606883,1807.9859604969415
53,1801.8700435307494,1801.8700435307494,1814.5115520633985,1831.23403074437
54,1854.5057435834524,1854.5057435834524,1869.7509538291815,1888.7422684066248
55,1909.6694650135528,1909.6694650135528,1911.1936683550978,1925.831519119012
56,1967.3465873190112,1967.3465873190112,1976.3830689120848,1988.8369253840183
57,1996.3019442772165,1996.3019442772165,2025.6140402723681,2042.0192198498848
58,2054.5913354473855,2054.5913354473855,2074.8782042302714,2091.526038654358
59,2081.2025914320675,2081.2025914320675,2091.526038654358,2106.7969022750704
60,2102.2783921990617,2102.2783921990617,2106.7969022750704,2123.4904777030147
61,2153.7162394276966,2153.7162394276966,2156.5015411057466,2179.9679170325608
62,2188.858240295983,2188.858240295983,2198.8578338838224,2216.4703213440844
63,2243.4352302416405,2243.4352302416405,2272.40299607127,2288.990013580555
64,2254.5071169542116,2272.40299607127,2288.990013580555,2302.8593358952394
65,2286.428150791377,2286.428150791377,2302.8593358952394,2319.704232773259
66,2336.932059260813,2336.932059260813,2344.6322807368924,2363.3207027377425
67,2361.386350699224,2361.386350699224,2365.616006908645,2378.248876644898
68,2384.6203479570136,2384.6203479570136,2386.0475413595827,2400.5308959610243
69,2422.918352038545,2422.918352038545,2424.188172949665,2440.400884600442
70,2469.3866489904144,2469.3866489904144,2472.314949186364,2487.740987766821
71,2498.9512500829655,2498.9512500829655,2525.4469356827008,2547.849483275469
72,2523.177232551067,2525.4469356827008,2547.849483275469,2564.714217184642
73,2562.8919529834657,2562.8919529834657,2566.6421240178247,2577.9788330496135
74,2590.792144741909,2590.792144741909,2595.4710794989996,2613.5340966020412
75,2647.712080143959,2647.712080143959,2688.73339401473,2703.982838489648
76,2678.565832806215,2688.73339401473,2703.982838489648,2717.8812993495467
77,2713.5358256288328,2713.5358256288328,2717.9444120087664,2733.005940043719
78,2753.8031794934627,2753.8031794934627,2756.3933155691097,2767.203624755851
79,2778.63313901887,2778.63313901887,2779.058264607312,2793.6641043534473
80,2806.235722529799,2806.235722529799,2820.9115514878654,2832.2440281640047
81,2840.2953541356756,2840.2953541356756,2852.4515637504164,2868.5842736241902
82,2885.5813913167317,2885.5813913167317,2903.502403545707,2919.338108213491
83,2912.0851458092534,2912.0851458092534,2919.338108213491,2936.337802844322
84,2953.656673318497,2953.656673318497,2955.636315170261,2969.4234322435905
85,2966.422458398773,2966.422458398773,2969.4234322435905,2981.712124194288
86,2996.6438099265933,2996.6438099265933,3018.1390024168595,3035.4387747436
87,3022.4493900820266,3022.4493900820266,3035.4387747436,3057.1293350279366
88,3062.812105597466,3062.812105597466,3063.161569204938,3083.2322559371673
89,3076.7749954368546,3076.7749954368546,3083.2322559371673,3096.9497472073826
90,3089.178560363208,3089.178560363208,3096.9497472073826,3110.0756483981695
91,3118.7757275890285,3118.7757275890285,3125.1940005395286,3138.0598765640516
92,3177.0203161040004,3177.0203161040004,3201.1141435984528,3216.486303092237
93,3201.843622929783,3201.843622929783,3216.486303092237,3235.390197284845
94,3250.4233631475913,3250.4233631475913,3258.8849529785753,3273.092789101208
95,3294.204947945262,3294.204947945262,3301.217019076374,3313.2816040809853
96,3316.050336739049,3316.050336739049,3329.093987769189,3348.0795562693543
97,3327.382162382226,3329.093987769189,3348.099471023673,3361.634156788101
98,3348.1722848199947,3348.1722848199947,3361.634156788101,3376.9632169970546
99,3373.7485602301517,3373.7485602301517,3376.9632169970546,3394.417781204748
100,3422.797444426651,3422.797444426651,3438.379105511055,3455.8276725553374
101,3434.9777668576794,3438.379105511055,3455.8276725553374,3466.9193029947364
102,3460.586791652029,3460.586791652029,3469.2418812477304,3487.1391289215435
103,3478.058937991249,3478.058937991249,3487.1391289215435,3506.388343419795
104,3525.7480447249604,3525.7480447249604,3541.7814090162356,3564.537383393172
105,3548.0737891090544,3548.0737891090544,3565.3464769195816,3578.951950034167
106,3573.209512202694,3573.209512202694,3585.432280860481,3604.572710383091
107,3587.0251758482314,3587.0251758482314,3604.572710383091,3623.865433522566
108,3615.837579743208,3615.837579743208,3623.865433522566,3643.3304110464333
109,3641.5795500333898,3641.5795500333898,3647.598195229732,3663.9961112509186
110,3684.417015567415,3684.417015567415,3694.5955107450254,3707.8991427155433
111,3721.07313524691,3721.07313524691,3722.3364164320087,3735.302326424988
112,3779.573495508093,3779.573495508093,3786.05669666437,3803.7634885281986
113,3824.522268462826,3824.522268462826,3825.6323239293924,3849.7115366743637
114,3855.447289713125,3855.447289713125,3862.685981647676,3877.503692984867
115,3888.928574313452,3888.928574313452,3892.105087881172,3905.9263406354466
116,3934.986780613683,3934.986780613683,3942.7943296521325,3957.8117072159307
117,3976.9058575784607,3976.9058575784607,3980.6565508989697,3995.8372772175603
118,4004.8717522617485,4004.8717522617485,4019.5134581290686,4033.2087970348075
119,4021.608508055553,4021.608508055553,4063.60247346307,4081.1922811465456
120,4062.0590695255464,4063.60247346307,4100.044775948499,4119.958850261388
121,4075.153696507293,4100.044775948499,4119.958850261388,4136.046746119974
122,4096.468593158234,4105.749039068557,4136.046746119974,4159.380184602102
123,4110.161645297683,4110.161645297683,4159.380184602102,4173.925744096928
124,4136.881079527487,4136.881079527487,4173.925744096928,4191.744769767171
125,4168.0367924562315,4168.0367924562315,4193.599918389544,4210.114315764207
126,4214.43902820528,4214.43902820528,4217.420150605119,4233.555585352802
127,4229.890844968264,4229.890844968264,4236.415040722885,4250.892782011249
128,4276.369480408823,4276.369480408823,4283.172939750837,4296.361664920063
129,4333.764383735746,4333.764383735746,4358.251871440834,4374.9818856728625
130,4382.07730507287,4382.07730507287,4391.475471793059,4414.220059744585
131,4407.261121583896,4407.261121583896,4425.464918332669,4445.053522739471
132,4431.250082555039,4431.250082555039,4450.683008270213,4467.1089946453785
133,4466.418151922935,4466.418151922935,4474.288102945856,4493.394529788735
134,4481.369257365001,4481.369257365001,4504.320924092415,4523.22747765668
135,4508.135449809797,4508.135449809797,4523.22747765668,4539.012796952026
136,4559.815302194923,4559.815302194923,4568.478673979158,4587.54199307415
137,4607.439502338606,4607.439502338606,4609.205983814898,4624.68939658961
138,4666.428743076933,4666.428743076933,4672.78310913202,4683.2401937095365
139,4702.218898395922,4702.218898395922,4714.678678426371,4732.162253023859
140,4738.779637357583,4738.779637357583,4761.215954154089,4776.523818279918
141,4793.4712330499315,4793.4712330499315,4799.309334233357,4818.56332848364
142,4822.165024018411,4822.165024018411,4834.1959465002565,4851.089323799763
143,4866.69987931543,4866.69987931543,4871.570975170993,4882.153094897095
144,4879.980361919487,4879.980361919487,4893.613922289567,4908.7180642913845
145,4929.826922224129,4929.826922224129,4946.140079977795,4962.8577077998525
146,4972.455052446511,4972.455052446511,4984.033824240882,5001.016571198221
147,5022.45710556716,5022.45710556716,5045.21149492147,5064.056921706291
148,5044.837260855263,5045.21149492147,5064.056921706291,5076.866583543186
149,5096.977231406113,5096.977231406113,5109.720499986116,5130.202342602634
150,5149.939567990043,5149.939567990043,5155.87957508003,5172.298184329686
151,5206.941301570918,5206.941301570918,5211.97281361636,5231.617033960391
152,5241.8582456821105,5241.8582456821105,5245.582506094879,5264.937739266726
153,5290.06574550807,5290.06574550807,5312.472467015098,5332.2186764382595
154,5327.993165116992,5327.993165116992,5334.4924338217825,5355.050428026465
155,5373.8390900717795,5373.8390900717795,5375.658883717261,5391.361593841358
156,5386.067424784942,5386.067424784942,5408.279831522218,5426.448640447806
157,5422.853822417373,5422.853822417373,5436.924744987285,5457.013623511057
158,5481.279281554177,5481.279281554177,5486.142399471627,5505.781961086615
159,5534.324829893394,5534.324829893394,5534.605608052755,5549.260805778096
160,5563.9619093146475,5563.9619093146475,5581.133072303023,5596.172173558764
161,5580.330013532763,5581.133072303023,5596.172173558764,5613.286200487781
162,5634.849462690749,5634.849462690749,5648.606694376767,5662.58063100599
163,5691.078169133205,5691.078169133205,5692.356088862086,5708.34687279778
164,5702.74214461311,5702.74214461311,5708.34687279778,5719.797277805925
165,5720.045857108934,5720.045857108934,5730.147654437959,5746.1790077167325
166,5757.638735852368,5757.638735852368,5765.979190097374,5780.787733061148
167,5798.615051408816,5798.615051408816,5811.965585182833,5827.440623959906
168,5848.54011752176,5848.54011752176,5853.671855396048,5870.016147862255
169,5880.3287572124755,5880.3287572124755,5886.2048210262465,5905.595042200217
170,5919.443891111297,5919.443891111297,5930.938257509848,5948.114588681719
171,5950.687557107714,5950.687557107714,5972.801774573807,5986.028509261648
172,6005.0206339810575,6005.0206339810575,6006.683629251157,6026.0163443244855
173,6031.358907856892,6031.358907856892,6038.959598628149,6052.16440477753
174,6066.922176995501,6066.922176995501,6067.310624373737,6086.536856518285
175,6124.464277202121,6124.464277202121,6141.099938252062,6154.479293112568
176,6143.660822762665,6143.660822762665,6155.306810174035,6169.574990701524
177,6194.628007522066,6194.628007522066,6203.201920789622,6219.601439820504
178,6240.12398309307,6240.12398309307,6264.36822468232,6278.8961927453565
179,6279.713288385103,6279.713288385103,6297.944387923128,6307.643284063046
180,6326.215325957879,6326.215325957879,6332.040770310593,6352.237281258557
181,6376.269802668941,6376.269802668941,6379.34338430605,6396.460288975901
182,6406.519077273945,6406.519077273945,6436.922241732343,6455.238538170955
183,6419.413498228094,6436.922241732343,6455.238538170955,6469.519429956443
184,6472.48260488126,6472.48260488126,6482.382457139099,6498.393767683646
185,6497.411781045545,6497.411781045545,6508.559186360489,6515.468375246002
186,6553.427678344792,6553.427678344792,6575.043508008061,6594.637220084299
187,6570.614713260396,6575.043508008061,6594.637220084299,6612.632272125226
188,6604.211620460576,6604.211620460576,6612.632272125226,6622.830436833059
189,6626.263046417505,6626.263046417505,6634.845888404231,6652.757556151308
190,6641.051813948256,6641.051813948256,6652.9890690524135,6668.780139957395
191,6668.545155120406,6668.545155120406,6670.121661713722,6688.9906554052095
192,6702.24594693136,6702.24594693136,6710.124723099638,6723.478921366315
193,6714.930637256722,6714.930637256722,6723.478921366315,6735.146756473708
194,6759.307584530584,6759.307584530584,6766.748112884633,6781.540267441129
195,6788.0694255821645,6788.0694255821645,6795.619093772477,6809.167088414351
196,6829.123582877571,6829.123582877571,6829.628323539196,6843.381009232354
197,6847.434272349037,6847.434272349037,6853.195816687147,6872.188873543191
198,6884.428164879803,6884.428164879803,6892.575501009718,6906.252739446189
199,6942.936031139855,6942.936031139855,6955.7176155446305,6970.409245527012
200,6968.257774061982,6968.257774061982,6977.866506357447,6995.47787111132
201,6981.594903615808,6981.594903615808,6995.47787111132,7009.045450764596
202,7000.087448731604,7000.087448731604,7013.611743748456,7029.014959086607
203,7055.745293367338,7055.745293367338,7075.809283427443,7095.717829122173
204,7087.551418755204,7087.551418755204,7095.717829122173,7113.661912566208
205,7118.622085762829,7118.622085762829,7150.11268321535,7167.450686962514
206,7166.598498192494,7166.598498192494,7168.1218084838165,7185.26724298485
207,7192.955531998804,7192.955531998804,7212.292635432677,7234.948251246498
208,7250.473968341443,7250.473968341443,7251.404725985993,7269.321557491921
209,7295.881780920966,7295.881780920966,7317.914855846655,7331.875953114476
210,7333.432223161693,7333.432223161693,7341.105142411087,7356.436229290397
211,7361.342556268373,7361.342556268373,7363.302485495415,7382.736744865681
212,7419.14131163797,7419.14131163797,7426.224027483312,7439.227063251563
213,7471.360757236959,7471.360757236959,7493.3198727009485,7512.036424235055
214,7482.4848965567735,7493.3198727009485,7512.036424235055,7528.682039417569
215,7538.4987796389905,7538.4987796389905,7541.502430126032,7558.631772161249
216,7588.316764841392,7588.316764841392,7593.52384756922,7611.029531410475
217,7634.837317711149,7634.837317711149,7655.130041189935,7674.191736562267
218,7650.508324832433,7655.130041189935,7674.191736562267,7684.03701492756
219,7678.719708085644,7678.719708085644,7700.506961233103,7717.303372290852
220,7722.777849784303,7722.777849784303,7728.425019768861,7742.31021069259
221,7742.02077131958,7742.02077131958,7745.1107017925915,7765.469363643025
222,7765.729463154608,7765.729463154608,7812.160055219044,7818.95554555877
223,7811.7739324462445,7812.160055219044,7818.95554555877,7829.68618587005
224,7843.258724917717,7843.258724917717,7847.0473774876455,7862.795831635436
225,7888.6689748392,7888.6689748392,7908.80221499141,7926.630923406521
226,7900.71594334388,7908.80221499141,7926.630923406521,7939.662598603557
227,7956.5910072657725,7956.5910072657725,7973.8140164184515,7984.614239020274
228,7976.008116169358,7976.008116169358,7984.614239020274,8000.483771198954
229,8004.876333621598,8004.876333621598,8021.467447196448,8036.634789122318
230,8037.126144542116,8037.126144542116,8039.465368254493,8054.947843922539
231,8079.022834163875,8079.022834163875,8081.387821835971,8097.369801145756
232,8107.272297208937,8107.272297208937,8121.015380872159,8142.309332502055
233,8161.412680244192,8161.412680244192,8183.813220394654,8202.113749088167
234,8184.596660506314,8184.596660506314,8202.113749088167,8217.282277407263
235,8243.56257105218,8243.56257105218,8246.349074772104,8260.97679656493
236,8292.068507887176,8292.068507887176,8293.879604154446,8312.639563352888
237,8350.09748951548,8350.09748951548,8352.61799356361,8367.817085473438
238,8400.645306018478,8400.645306018478,8417.071790534465,8427.24431775168
239,8430.570705636546,8430.570705636546,8434.725843379429,8446.882386297855
240,8464.289710663055,8464.289710663055,8464.63350798201,8480.65983361437
241,8499.590961309865,8499.590961309865,8534.16901356664,8549.836240137993
242,8530.045824189325,8534.16901356664,8549.836240137993,8565.696549524615
243,8560.453851523887,8560.453851523887,8566.542275257361,8580.416360314886
244,8571.598013392824,8571.598013392824,8589.110728551515,8604.8921979744
245,8588.232558291309,8589.110728551515,8604.8921979744,8620.702371186306
246,8599.587463683594,8600.153659621488,8620.702371186306,8636.595910852262
247,8653.551201878712,8653.551201878712,8654.218218954944,8671.107337510748
248,8695.612202215252,8695.612202215252,8695.827802028563,8716.003830154863
249,8724.562918185115,8724.562918185115,8745.094957604626,8757.90120580303
250,8774.19766425174,8774.19766425174,8775.508156512396,8793.89253063871
251,8807.9782581526,8807.9782581526,8838.251870738277,8854.95188740853
252,8848.8811906798,8848.8811906798,8863.230861303226,8876.818270714122
253,8873.380079431205,8873.380079431205,8925.918080710775,8943.930139609969
254,8930.969493212076,8930.969493212076,8943.930139609969,8963.849345607514
255,8959.919836696794,8959.919836696794,8967.761231096223,8986.59855712048
256,9015.22483108993,9015.22483108993,9050.574610994261,9062.194481756416
