# file created by code in harbour_fns_1896438.jl
# file created on 2026-03-09 at 15:39:46
# parameter: seed = 1896618
# parameter: T = 30000.0
# parameter: lower_interarrival = 11.0
# parameter: upper_interarrival = 59.0
# parameter: mean_process_times = [11.0, 16.0]
# parameter: max_queue = [9223372036854775807, 4]
# parameter: time_units = hours
id,arrival_time,start_service_times,start_service_times,completion_time
1,0.0,0.0,2.4447869349488722,18.251612041415516
2,26.504670533677626,26.504670533677626,26.80879859774627,43.158041136340955
3,49.591374932162616,49.591374932162616,54.42935036166652,68.70438516535802
4,85.56663942991332,85.56663942991332,85.85492781700063,102.41905283778979
5,115.69210566563702,115.69210566563702,116.05756340481135,134.5805775914172
6,168.1261180790978,168.1261180790978,182.12410137852646,200.9658100462242
7,213.87473535897135,213.87473535897135,216.5661957903241,233.46950231397858
8,257.79411286619336,257.79411286619336,283.3265770401279,305.30226679482513
9,292.610585507847,292.610585507847,305.30226679482513,318.54661879027685
10,336.91834934035154,336.91834934035154,354.8820607819659,365.8632862911882
11,375.00375560747216,375.00375560747216,394.0111308595458,407.1666751048113
12,388.9445627229218,394.0111308595458,407.1666751048113,420.4472663762143
13,429.8374008877167,429.8374008877167,431.15937718468564,446.7616664071375
14,457.74187781707326,457.74187781707326,471.9602139030184,491.17084538826464
15,507.9726197878788,507.9726197878788,530.5485892386282,546.4774028201299
16,519.3376158861294,530.5485892386282,546.4774028201299,562.9976468758846
17,563.9883988309555,563.9883988309555,580.1716942995962,598.6670725521797
18,611.6893380318975,611.6893380318975,612.8684253466126,626.5777333123242
19,632.468185598743,632.468185598743,644.2322043747766,660.69935752062
20,671.8683201154241,671.8683201154241,672.1578047952979,690.7162797668664
21,727.7351739920091,727.7351739920091,730.2814295049716,748.4356144287487
22,768.0502792714159,768.0502792714159,785.7430257880079,801.6254139001153
23,796.837449557429,796.837449557429,814.5070778229659,829.2169509444986
24,845.997708545505,845.997708545505,853.2265611415828,870.2063699987483
25,869.4501974522072,869.4501974522072,871.0088121663347,884.3121027410899
26,920.7417054507571,920.7417054507571,953.9269998855084,972.7407706940795
27,952.3331201481986,953.9269998855084,972.7407706940795,987.8507784579903
28,965.8019267207326,965.8019267207326,987.8507784579903,1003.7042916390105
29,1022.5128312672326,1022.5128312672326,1052.0139283761735,1075.9578041619511
30,1060.6554932139693,1060.6554932139693,1075.9578041619511,1086.4526867401812
31,1091.7310179547503,1091.7310179547503,1093.2869318720536,1110.341528183151
32,1135.7567669538403,1135.7567669538403,1144.1055504776343,1161.1902354752935
33,1146.864452277129,1146.864452277129,1169.59360129479,1186.4549233697712
34,1175.625531256006,1175.625531256006,1186.4549233697712,1200.393356963154
35,1208.8333471196086,1208.8333471196086,1224.4139590304678,1244.2103205854069
36,1241.4228121659507,1241.4228121659507,1251.4984341764457,1264.7460381038366
37,1255.8758330649084,1255.8758330649084,1264.7460381038366,1283.7974317520095
38,1268.0805674397566,1268.0805674397566,1316.7682760144478,1331.0334907036709
39,1324.9511978102298,1324.9511978102298,1343.6474279086406,1362.048254810317
40,1378.999637308155,1378.999637308155,1398.9611507897969,1417.3862781772543
41,1432.1897817504098,1432.1897817504098,1433.2695446221792,1452.1863853076986
42,1449.4369479365448,1449.4369479365448,1459.4204375894044,1476.6557280736445
43,1470.4083228189645,1470.4083228189645,1476.6557280736445,1492.2389616211392
44,1521.7850914816465,1521.7850914816465,1533.6029629691498,1550.4775300186095
45,1579.5722213468798,1579.5722213468798,1588.6033771343639,1606.572415680028
46,1598.8014801023212,1598.8014801023212,1606.572415680028,1621.125108384317
47,1649.300730378806,1649.300730378806,1656.8667007978747,1674.0199023672244
48,1698.9082580751817,1698.9082580751817,1703.6100519355869,1720.3041216897454
49,1725.2340213884243,1725.2340213884243,1744.8885109258144,1761.552843576451
50,1775.1987569980965,1775.1987569980965,1778.9178172605216,1793.4487783631582
51,1794.422656303882,1794.422656303882,1795.6350276064024,1815.8658947916706
52,1823.1392407254045,1823.1392407254045,1841.6178924409273,1856.320283340958
53,1862.4124457343046,1862.4124457343046,1871.6897824676425,1888.203070546331
54,1894.2604249496337,1894.2604249496337,1902.9225584616531,1917.5926761198473
55,1953.1758615478677,1953.1758615478677,1954.4418754461667,1968.7955046812085
56,1983.338829807096,1983.338829807096,1985.1459698675487,1992.557000689146
57,2018.907896425868,2018.907896425868,2057.2697213038537,2074.9477065912
58,2031.853609022661,2057.2697213038537,2074.9477065912,2088.9999252592074
59,2051.919445181038,2060.5905104619274,2088.9999252592074,2108.451831683236
60,2090.423203646185,2090.423203646185,2108.451831683236,2122.0733288480524
61,2116.5610773460107,2116.5610773460107,2122.0733288480524,2139.6384352351756
62,2140.6456542635833,2140.6456542635833,2140.6941128151298,2149.415165078248
63,2171.710794977419,2171.710794977419,2174.157387505707,2188.0489216943474
64,2229.3279747645875,2229.3279747645875,2234.64640654171,2254.047725713565
65,2263.950597834661,2263.950597834661,2269.179507167088,2281.6250963139523
66,2321.16889130221,2321.16889130221,2328.4513783182365,2345.8378186845016
67,2332.325545621111,2332.325545621111,2351.6447811620287,2366.3788451461623
68,2365.7785267180448,2365.7785267180448,2385.708433870432,2402.930165975788
69,2396.099707862796,2396.099707862796,2412.0321785606397,2428.219368098106
70,2415.605967037508,2415.605967037508,2428.219368098106,2441.3242597395374
71,2467.536327349952,2467.536327349952,2467.956040607,2482.3615300486813
72,2499.130277221027,2499.130277221027,2522.423893341178,2535.7941452454975
73,2557.7812967189175,2557.7812967189175,2586.2755561073886,2599.7919199346316
74,2576.9627822431185,2586.2755561073886,2599.7919199346316,2615.000839041861
75,2591.317950585598,2595.500957613991,2624.5612177593007,2637.355844365247
76,2647.7067263331023,2647.7067263331023,2666.245633372519,2675.9638948203883
77,2695.4276453097677,2695.4276453097677,2699.306819430702,2715.7587233820877
78,2733.986922654559,2733.986922654559,2756.459256311302,2774.6489534785615
79,2781.5423782999455,2781.5423782999455,2782.607622805622,2798.5000463366823
80,2824.4761665063825,2824.4761665063825,2842.0348905551987,2851.9860138182685
81,2865.002048426933,2865.002048426933,2867.8365996141,2881.0495347312462
82,2879.5420743555705,2879.5420743555705,2883.4206037874173,2901.6676569690926
83,2903.0547063548297,2903.0547063548297,2919.3363104585096,2936.727215783986
84,2958.128596357819,2958.128596357819,2961.1349293553653,2971.249884602698
85,2972.1224523621518,2972.1224523621518,3020.1595093807823,3039.6988827295736
86,3020.5445127912326,3020.5445127912326,3039.6988827295736,3055.0112187488203
87,3033.0115121380554,3033.0115121380554,3055.0112187488203,3073.366714128324
88,3075.489330327299,3075.489330327299,3092.34292005888,3111.231428515249
89,3101.997592219318,3101.997592219318,3116.3375492792657,3134.943844323044
90,3115.7670174180575,3116.3375492792657,3134.943844323044,3151.683232456216
91,3156.88247397193,3156.88247397193,3166.4216565868214,3183.5955199430564
92,3188.6921067738285,3188.6921067738285,3192.7390091922834,3206.9432065628193
93,3202.8072708995596,3202.8072708995596,3210.278633000553,3225.652248141462
94,3235.760969935376,3235.760969935376,3237.94687932053,3252.4195078741136
95,3261.41977378521,3261.41977378521,3287.2771177050818,3304.3838934709092
96,3298.9905663625395,3298.9905663625395,3304.3838934709092,3319.050537382319
97,3345.4715532558275,3345.4715532558275,3357.680987763713,3373.61241210436
98,3384.781871219992,3384.781871219992,3392.5940619117173,3409.5260638028453
99,3409.873950664734,3409.873950664734,3416.0626894765455,3430.8037526251824
100,3429.6819153430342,3429.6819153430342,3442.739707557738,3463.0750946561648
101,3457.960583667438,3457.960583667438,3467.009691170854,3479.074828873298
102,3516.910927743798,3516.910927743798,3522.9952975671617,3540.9298554838515
103,3566.6150213564083,3566.6150213564083,3584.8921075200506,3602.7835294118076
104,3590.398650631297,3590.398650631297,3602.7835294118076,3615.0449910968446
105,3646.3902736856403,3646.3902736856403,3651.266426375914,3672.04054201249
106,3685.8916920344723,3685.8916920344723,3693.0641761141947,3708.9596248519592
107,3721.5205091410076,3721.5205091410076,3733.5857845780133,3746.9550128417727
108,3769.2480700050073,3769.2480700050073,3822.796848405348,3843.1198433396
109,3802.9863140573675,3822.796848405348,3843.1198433396,3851.873840186596
110,3831.557041241345,3831.557041241345,3851.873840186596,3869.79469327123
111,3878.463648995236,3878.463648995236,3887.922428719957,3908.9697483852597
112,3934.553805334746,3934.553805334746,3942.2875214251744,3956.5751595338047
113,3952.0853955509556,3952.0853955509556,3960.977005685367,3977.9661860960728
114,3976.762573525956,3976.762573525956,3989.8037682958907,4006.4932555871524
115,3996.30555919139,3996.30555919139,4006.4932555871524,4020.5584941747393
116,4012.7177366027568,4012.7177366027568,4020.5584941747393,4040.027366580443
117,4061.8207151553565,4061.8207151553565,4067.136036387076,4081.991816448235
118,4087.8836890726084,4087.8836890726084,4095.536417324267,4111.7992904569155
119,4121.687151605848,4121.687151605848,4144.928091342468,4165.132762160387
120,4175.23982619616,4175.23982619616,4207.660774670781,4225.485792212527
121,4191.675849889503,4207.660774670781,4225.485792212527,4239.826641429719
122,4213.004973173622,4221.619965474154,4239.826641429719,4251.74579259697
123,4251.823995765475,4251.823995765475,4254.440898338751,4267.375600746589
124,4299.253305715746,4299.253305715746,4308.468758773636,4320.582752439921
125,4316.269322475702,4316.269322475702,4325.535727819324,4341.137209652664
126,4361.594341537976,4361.594341537976,4372.085919909355,4386.810278495532
127,4401.865744360938,4401.865744360938,4401.951699215318,4419.52005256339
128,4439.001632635758,4439.001632635758,4452.332436469606,4471.393845446335
129,4495.5846377753205,4495.5846377753205,4504.977769640534,4522.491451144455
130,4533.738744429303,4533.738744429303,4541.480101650022,4553.920863129898
131,4558.174513553362,4558.174513553362,4571.804875209295,4592.145529522676
132,4600.1578024412875,4600.1578024412875,4604.773468217081,4624.978844562516
133,4650.726182831632,4650.726182831632,4652.577900991145,4669.902704505403
134,4667.248064191087,4667.248064191087,4669.902704505403,4685.656954829793
135,4689.165862456834,4689.165862456834,4695.40616279556,4712.220745169483
136,4745.723293706594,4745.723293706594,4779.502025790141,4797.099001266258
137,4797.961858647043,4797.961858647043,4819.881291224428,4833.305312721708
138,4843.0313286661285,4843.0313286661285,4851.791265178393,4861.924320810221
139,4898.987290051877,4898.987290051877,4915.246746961134,4926.492708675485
140,4926.386561070399,4926.386561070399,4930.775906002427,4949.624309997703
141,4960.310910296276,4960.310910296276,4962.23771765806,4978.8110475080375
142,5000.1949665154325,5000.1949665154325,5007.135109501226,5020.43586014209
143,5027.258883904431,5027.258883904431,5035.342634989926,5047.608362258163
144,5063.726847094376,5063.726847094376,5065.607306695103,5077.757830658236
145,5093.740114873942,5093.740114873942,5119.625243682707,5136.947530228106
146,5114.525162433514,5119.625243682707,5136.947530228106,5151.597397995008
147,5156.985734994518,5156.985734994518,5186.908543791652,5198.615488286168
148,5214.804811457258,5214.804811457258,5220.057443912847,5232.618915055102
149,5255.395578133681,5255.395578133681,5259.05919555695,5270.272719489314
150,5270.799009570667,5270.799009570667,5302.084248294987,5317.062801194941
151,5293.9319119286765,5302.084248294987,5317.150769147941,5330.5323051609375
152,5317.326448569112,5317.326448569112,5338.5179934724265,5355.3582694316065
153,5340.713785474626,5340.713785474626,5355.3582694316065,5374.296516881724
154,5357.012854694,5357.012854694,5374.296516881724,5392.852650553963
155,5377.416201633547,5377.416201633547,5398.167090520295,5420.258529313083
156,5425.163377428683,5425.163377428683,5428.058608131327,5445.590869172654
157,5442.25661219454,5442.25661219454,5461.450218893927,5480.805555455683
158,5496.4548832122655,5496.4548832122655,5505.125843284017,5522.659399971645
159,5543.715204020525,5543.715204020525,5557.356602161141,5571.432738482983
160,5557.058894938953,5557.356602161141,5571.432738482983,5590.28988410716
161,5591.087488606019,5591.087488606019,5598.487018081094,5617.1479574738805
162,5636.800696970139,5636.800696970139,5637.511058399731,5654.911070160943
163,5656.351227330699,5656.351227330699,5673.537069607377,5683.093955975983
164,5687.813717496113,5687.813717496113,5695.868383715921,5714.83275526441
165,5721.614292801483,5721.614292801483,5745.509758813586,5760.822111652395
166,5751.592101952981,5751.592101952981,5760.822111652395,5770.256512226986
167,5789.124368432822,5789.124368432822,5804.810118777877,5820.541609980625
168,5812.489553267002,5812.489553267002,5820.541609980625,5829.055949226885
169,5830.92269073161,5830.92269073161,5843.556850242602,5861.344663361482
170,5847.921033093253,5847.921033093253,5861.344663361482,5872.7543777667515
171,5890.50875930718,5890.50875930718,5899.973191403455,5923.088608918688
172,5941.56787868474,5941.56787868474,5942.177534745415,5960.311687695119
173,5988.400657387628,5988.400657387628,5992.509017022413,6010.911174437554
174,6010.105767792331,6010.105767792331,6022.10555199706,6039.0535900377945
175,6031.565668674519,6031.565668674519,6039.0535900377945,6052.566032808975
176,6052.702485923384,6052.702485923384,6067.516464527517,6081.037863048746
177,6097.635531714788,6097.635531714788,6104.822549076825,6120.637299666985
178,6111.210342618851,6111.210342618851,6120.637299666985,6139.960014568463
179,6126.0511394233945,6126.0511394233945,6139.960014568463,6156.099161969034
180,6148.8047349549415,6148.8047349549415,6156.099161969034,6174.706238021925
181,6161.228862019164,6161.228862019164,6174.706238021925,6197.441704355798
182,6186.965877651157,6186.965877651157,6197.441704355798,6214.192674616409
183,6208.080300383157,6208.080300383157,6214.192674616409,6229.990660249241
184,6253.296072090328,6253.296072090328,6261.184900798648,6279.8264658775515
185,6269.0306912523865,6269.0306912523865,6279.8264658775515,6291.421258194862
186,6282.261966212798,6282.261966212798,6317.50558566116,6335.3953105415585
187,6323.290812134107,6323.290812134107,6338.339089437011,6352.474227535884
188,6348.796123912056,6348.796123912056,6371.700040968038,6388.2210042972
189,6396.407007574738,6396.407007574738,6396.75993810803,6416.161673742464
190,6412.50696415076,6412.50696415076,6420.181296753177,6437.380084041384
191,6427.662633337735,6427.662633337735,6437.380084041384,6454.586640034739
192,6449.463968928045,6449.463968928045,6454.586640034739,6469.520960509547
193,6469.153397350936,6469.153397350936,6475.3687563010935,6489.315210143588
194,6506.349996452725,6506.349996452725,6511.088909112869,6528.891367152071
195,6547.3208611824,6547.3208611824,6551.961742028391,6571.837670212316
196,6599.212138674797,6599.212138674797,6618.358211022251,6627.657341160878
197,6615.968684000104,6618.358211022251,6627.657341160878,6643.4309259187075
198,6636.358044657903,6636.358044657903,6643.4309259187075,6657.433555249972
199,6653.217516601,6653.217516601,6663.960780304031,6679.769662842229
200,6694.653147153253,6694.653147153253,6704.998015559098,6719.915509844084
201,6706.513194245005,6706.513194245005,6750.132661458198,6772.099939926239
202,6717.8218944304845,6750.132661458198,6772.099939926239,6783.673414517033
203,6740.348700240626,6756.406910151431,6789.657687231609,6805.144577753706
204,6756.005272064648,6789.657687231609,6805.144577753706,6822.978455488986
205,6779.552788975236,6795.742997480316,6822.978455488986,6840.709010304203
206,6792.045499339858,6796.073524885653,6840.709010304203,6861.050416328127
207,6824.0799145891015,6824.0799145891015,6861.050416328127,6870.302379760031
208,6861.204920861308,6861.204920861308,6870.302379760031,6889.7686415202825
209,6896.156379698403,6896.156379698403,6900.0243665727385,6915.221322965431
210,6914.828353453675,6914.828353453675,6928.580068013346,6946.140559714124
211,6942.50555733907,6942.50555733907,6959.756731685849,6981.833701023379
212,6976.790780810532,6976.790780810532,7009.4114121649745,7027.057053753639
213,7022.716729270661,7022.716729270661,7028.162834847831,7048.403291167192
214,7069.663519692576,7069.663519692576,7090.858924079995,7111.069195502665
215,7114.574177147555,7114.574177147555,7127.769321451254,7147.920509381535
216,7142.665435305003,7142.665435305003,7148.127634200952,7165.209641693516
217,7176.499272519054,7176.499272519054,7189.111260758121,7204.217246651304
218,7206.592297990691,7206.592297990691,7209.703602513567,7225.9056786831725
219,7239.817311338637,7239.817311338637,7245.299417726442,7265.640958871565
220,7298.389621543142,7298.389621543142,7306.618732727337,7320.6849379089135
221,7356.608879638805,7356.608879638805,7360.1580943762265,7379.7195961955795
222,7373.868030691875,7373.868030691875,7379.7195961955795,7390.942356606107
223,7409.250158187357,7409.250158187357,7422.928003446589,7433.791420805215
224,7444.968308745747,7444.968308745747,7464.666097186422,7480.372694892324
225,7475.813715252178,7475.813715252178,7490.2294672099,7508.263483591288
226,7518.783052579068,7518.783052579068,7520.117631364366,7534.626318522077
227,7548.470623841798,7548.470623841798,7550.018546732768,7562.2373019412225
228,7599.854522086139,7599.854522086139,7609.74931203423,7632.243782747655
229,7655.144845452086,7655.144845452086,7656.26663068849,7675.948702663199
230,7678.24124510952,7678.24124510952,7697.955047060318,7712.392324304413
231,7728.040862812643,7728.040862812643,7746.603070619776,7766.680620232353
232,7742.985611948166,7746.603070619776,7766.680620232353,7781.647037159626
233,7777.712278223831,7777.712278223831,7781.647037159626,7797.118760823519
234,7797.228320406348,7797.228320406348,7801.095412378461,7820.4036915940105
235,7825.1010483126465,7825.1010483126465,7842.954420755054,7861.485573067133
236,7882.586305859005,7882.586305859005,7898.423875543825,7915.48948274973
237,7919.421328142056,7919.421328142056,7930.566885184334,7946.362736863133
238,7977.936712066963,7977.936712066963,8001.510253875945,8021.475443559361
239,8008.209056403049,8008.209056403049,8021.475443559361,8034.81246369481
240,8048.4313548941345,8048.4313548941345,8051.300748560111,8069.428933443858
241,8089.387909779994,8089.387909779994,8090.268454672995,8105.733878461637
242,8134.714582081884,8134.714582081884,8143.256816918029,8154.388217291179
243,8159.008021874277,8159.008021874277,8173.891592440701,8193.808096505867
244,8211.035558170863,8211.035558170863,8252.608701377965,8270.742011146558
245,8268.822105604348,8268.822105604348,8271.923330162972,8288.826772158704
246,8307.884502082943,8307.884502082943,8354.685265952769,8373.310383670892
247,8341.907015839906,8354.685265952769,8373.842406843856,8393.11456484785
248,8370.184230104927,8373.842406843856,8393.11456484785,8408.138376623469
249,8414.851826403872,8414.851826403872,8422.904517481393,8436.593410645117
250,8450.788987864924,8450.788987864924,8456.618984650711,8474.105126287091
251,8468.13336686889,8468.13336686889,8474.105126287091,8489.403247458038
252,8502.019567601646,8502.019567601646,8537.08654946125,8551.343296732275
253,8531.002084765707,8537.08654946125,8551.587996335918,8567.787717571291
254,8567.634899316481,8567.634899316481,8578.487072368984,8596.498178565253
255,8608.96379376962,8608.96379376962,8614.738569533856,8629.726540883948
256,8622.484704275279,8622.484704275279,8629.726540883948,8648.429243044922
