# file created by code in harbour_fns_1896438.jl
# file created on 2026-03-09 at 15:39:39
# parameter: seed = 1896521
# parameter: T = 30000.0
# parameter: lower_interarrival = 11.0
# parameter: upper_interarrival = 59.0
# parameter: mean_process_times = [11.0, 16.0]
# parameter: max_queue = [9223372036854775807, 4]
# parameter: time_units = hours
id,arrival_time,start_service_times,start_service_times,completion_time
1,0.0,0.0,7.440986568074484,23.51757078129077
2,34.060501106330086,34.060501106330086,34.341429615086035,50.50628499125761
3,72.73314837612702,72.73314837612702,77.31061413183201,92.35821822251089
4,129.50771721438886,129.50771721438886,130.14836549100008,146.1476011965749
5,180.77438439789154,180.77438439789154,229.49512916470428,246.55300474786696
6,235.55616938701573,235.55616938701573,246.55300474786696,269.44369568985456
7,279.93281090271944,279.93281090271944,286.1772811300751,306.62331889489167
8,305.3912479627096,305.3912479627096,306.62331889489167,322.66198516749415
9,322.63870174377206,322.63870174377206,342.62914986963625,359.0957429143822
10,354.2500045573148,354.2500045573148,359.0957429143822,368.9926775677129
11,377.4347466769498,377.4347466769498,399.9659672400052,414.85726624729745
12,398.524273865366,399.9659672400052,429.1726352202421,446.91050258156974
13,430.6112527573014,430.6112527573014,446.91050258156974,470.30504646840166
14,457.7828507580478,457.7828507580478,470.30504646840166,486.80144434722627
15,477.59895036299474,477.59895036299474,486.80144434722627,500.949373095769
16,507.1709504503862,507.1709504503862,507.38004858814605,519.1255101145161
17,557.7511348559885,557.7511348559885,560.8393327023857,578.3984957634742
18,573.9508396278123,573.9508396278123,578.3984957634742,597.2651757020878
19,624.571743175756,624.571743175756,635.253909504787,654.0140095858171
20,667.486910993521,667.486910993521,691.1598826049207,712.0065281127795
21,697.5236550800632,697.5236550800632,712.0065281127795,726.2924993241705
22,717.4567196036659,717.4567196036659,754.6525214752368,774.1990107451509
23,770.2884147345449,770.2884147345449,775.9211561464449,790.9762209907834
24,782.4107783603633,782.4107783603633,790.9762209907834,812.0473864619581
25,799.9484710698209,799.9484710698209,816.8468165336001,838.8970116013539
26,822.5071515248897,822.5071515248897,866.04063283077,884.920733914864
27,836.5530717714305,866.04063283077,884.920733914864,903.3018263461607
28,861.1633074325041,873.0974089006112,903.3018263461607,914.0869893859627
29,890.5583433639234,890.5583433639234,914.0869893859627,926.8540078211125
30,915.867414530759,915.867414530759,926.8540078211125,940.7508246138028
31,936.8982648544657,936.8982648544657,959.1136231783431,976.1079593664881
32,995.0626740545117,995.0626740545117,1006.1416569902236,1021.979043973192
33,1033.6103266429745,1033.6103266429745,1038.1688237116136,1055.754488057006
34,1055.878728879185,1055.878728879185,1058.2953377270765,1073.5362708410787
35,1102.8292419915285,1102.8292419915285,1107.7942541125467,1120.8000569527874
36,1142.9162453260876,1142.9162453260876,1159.7456189591142,1179.8476720554381
37,1160.558973093861,1160.558973093861,1179.8476720554381,1196.1819701389584
38,1211.936879691149,1211.936879691149,1226.2627098426278,1239.3443484309346
39,1246.1299028089534,1246.1299028089534,1252.2725341591868,1268.7374412264787
40,1272.7946298214044,1272.7946298214044,1299.0447708083589,1316.9995710090443
41,1300.4277756136878,1300.4277756136878,1316.9995710090443,1334.2895242077716
42,1358.681738909985,1358.681738909985,1378.6802025469528,1393.005329204604
43,1381.1179485900386,1381.1179485900386,1393.005329204604,1409.1982961543224
44,1414.907021811302,1414.907021811302,1415.0245369130757,1435.509294831314
45,1449.392447959316,1449.392447959316,1451.4479833718774,1469.4143040202184
46,1491.9908775637714,1491.9908775637714,1501.6969218623253,1517.43594633704
47,1508.044470251618,1508.044470251618,1520.3223485714805,1534.4990862801676
48,1550.041062522558,1550.041062522558,1551.3559270808607,1569.934865566396
49,1561.0550619786823,1561.0550619786823,1595.8250510813937,1610.1649687693186
50,1586.633911033228,1595.8250510813937,1610.1649687693186,1627.811721802504
51,1612.3261438619984,1612.3261438619984,1627.811721802504,1644.0467685111032
52,1669.4646262515685,1669.4646262515685,1692.5779110664691,1704.6820735028994
53,1697.863666265829,1697.863666265829,1713.1856241824441,1725.2992901716639
54,1738.2393540034655,1738.2393540034655,1770.892824473815,1783.4944572645593
55,1794.6771980877859,1794.6771980877859,1801.9662590725047,1826.611394749961
56,1812.6613234179163,1812.6613234179163,1846.536201774176,1864.3065724177457
57,1842.816823101924,1846.536201774176,1864.3065724177457,1879.6011815260483
58,1874.1347387195842,1874.1347387195842,1879.6011815260483,1895.2276190506936
59,1924.0895250411916,1924.0895250411916,1937.3991396723657,1953.3219931692674
60,1974.3751131914867,1974.3751131914867,1987.428225844689,2002.2834999310924
61,2010.4301336177869,2010.4301336177869,2013.21810405174,2028.3551615330712
62,2051.991430645818,2051.991430645818,2056.61862672945,2076.691271370726
63,2085.1804731788516,2085.1804731788516,2086.6292904204824,2106.469693644659
64,2127.0984708400115,2127.0984708400115,2135.842372983111,2149.990310399803
65,2178.2989672874696,2178.2989672874696,2211.2335932362143,2229.6785719695
66,2191.2477704091825,2211.2335932362143,2229.6785719695,2243.815714494852
67,2215.456083142536,2222.552933986521,2243.815714494852,2254.1868274301387
68,2234.387880385592,2234.387880385592,2280.6552252096085,2293.6995732466526
69,2291.285201036221,2291.285201036221,2305.063242199303,2319.842977294139
70,2322.8372570404467,2322.8372570404467,2327.031017442418,2347.166091005743
71,2345.9157645689675,2345.9157645689675,2353.2641926832175,2366.3536858769894
72,2395.915514619174,2395.915514619174,2401.9653487962664,2418.5423203211526
73,2425.632866771133,2425.632866771133,2426.5386060271003,2440.4563916730604
74,2483.6676652282986,2483.6676652282986,2487.4446111417706,2504.6841128404744
75,2537.7217792021,2537.7217792021,2553.4960813608814,2568.6706273171644
76,2577.584812772865,2577.584812772865,2584.3819903136205,2600.260818809509
77,2608.3330964963648,2608.3330964963648,2609.792798296525,2624.6684675180454
78,2658.174322771514,2658.174322771514,2658.697696759552,2671.5343644650006
79,2673.047749649249,2673.047749649249,2677.0528356639,2695.5993790899474
80,2723.1564618069606,2723.1564618069606,2736.1165117773953,2751.781339399273
81,2752.604300787596,2752.604300787596,2758.6506046880572,2774.212155268904
82,2786.7922620868694,2786.7922620868694,2791.336091242883,2804.26243676251
83,2829.857692292204,2829.857692292204,2836.184255970176,2851.828720129991
84,2868.789188535732,2868.789188535732,2874.0848287966164,2894.813556473535
85,2886.618911679752,2886.618911679752,2894.813556473535,2905.3652526950877
86,2927.878357805068,2927.878357805068,2933.912255520695,2951.750158399426
87,2978.9364121628582,2978.9364121628582,2992.4957907512717,3003.961479389634
88,3008.2978684871537,3008.2978684871537,3025.377468530188,3046.9699559833603
89,3055.50603115069,3055.50603115069,3063.6411192559362,3078.3290963293366
90,3082.0495233378297,3082.0495233378297,3084.662038249049,3100.6252283054523
91,3098.275639097749,3098.275639097749,3100.6252283054523,3116.785918323912
92,3125.0702942810663,3125.0702942810663,3143.0085054460287,3158.000205753593
93,3154.2650026437486,3154.2650026437486,3159.589396847092,3173.661936819201
94,3196.655042343226,3196.655042343226,3196.6598568769164,3215.587707917377
95,3235.2185316367804,3235.2185316367804,3239.838448450878,3255.719763068941
96,3268.4335698342943,3268.4335698342943,3273.565917576345,3287.868167005867
97,3306.709792082108,3306.709792082108,3315.6914337101994,3332.828925423267
98,3338.061271086445,3338.061271086445,3344.567075968611,3360.133142750672
99,3366.186849776791,3366.186849776791,3370.5964622777833,3385.064583047971
100,3394.9108702406616,3394.9108702406616,3403.011895007171,3422.0367830616965
101,3442.912164502251,3442.912164502251,3443.63318688812,3463.4533448549737
102,3498.134578383606,3498.134578383606,3503.794381129832,3524.1708007747866
103,3549.792516035402,3549.792516035402,3610.6032362518754,3621.5910665619645
104,3569.4419686133347,3610.6032362518754,3621.5910665619645,3639.666229333118
105,3615.657605517887,3615.657605517887,3639.666229333118,3657.258077017813
106,3628.8324196299786,3628.8324196299786,3657.258077017813,3672.2376937951585
107,3682.0995899449954,3682.0995899449954,3707.675522200076,3723.19035591669
108,3728.2987553611138,3728.2987553611138,3729.1739566769256,3746.7359893620483
109,3775.8495819374903,3775.8495819374903,3832.3143897598757,3845.0465138757586
110,3794.935706583707,3832.3143897598757,3845.0465138757586,3863.571948224552
111,3837.860983248006,3837.860983248006,3863.571948224552,3880.401314952226
112,3880.1347322577526,3880.1347322577526,3886.039870316015,3901.4759088439573
113,3927.632530110826,3927.632530110826,3929.582115268604,3946.9258302014746
114,3947.3352136900753,3947.3352136900753,3955.0491952033926,3966.4477101407115
115,3994.396580862965,3994.396580862965,3995.0599899559284,4013.444976077804
116,4017.0776914659755,4017.0776914659755,4032.919285888426,4044.6192563819163
117,4043.7381716304367,4043.7381716304367,4044.6192563819163,4060.8925122305486
118,4070.872015968919,4070.872015968919,4078.8911129643425,4091.990430022145
119,4116.022693699772,4116.022693699772,4121.674194364677,4136.327506624226
120,4163.290873744195,4163.290873744195,4190.418860146815,4207.395736075422
121,4189.744353916661,4190.418860146815,4207.395736075422,4220.741471785967
122,4209.045142957224,4209.045142957224,4227.60126169923,4244.150998246611
123,4229.635891885216,4229.635891885216,4244.150998246611,4264.078573206884
124,4270.284343705865,4270.284343705865,4280.586632771257,4292.468464944438
125,4295.565757299959,4295.565757299959,4308.896641527093,4326.593751478557
126,4314.8058139090235,4314.8058139090235,4359.3298211129495,4377.424573332845
127,4340.824787170346,4359.3298211129495,4377.424573332845,4394.425314779094
128,4384.519831553175,4384.519831553175,4394.425314779094,4407.804522901171
129,4424.0489696520635,4424.0489696520635,4442.646772408276,4460.559097424831
130,4481.961754502423,4481.961754502423,4494.968888684383,4506.129586730885
131,4539.156080704833,4539.156080704833,4545.643147005524,4566.141806753949
132,4580.854003977499,4580.854003977499,4585.282158234543,4605.144724231853
133,4637.309101003231,4637.309101003231,4653.341905234031,4672.036314545511
134,4652.517795468639,4653.341905234031,4675.5940982816255,4692.881999562987
135,4667.063794383894,4675.5940982816255,4693.516518128226,4712.547639499063
136,4717.246252980571,4717.246252980571,4719.704251290758,4741.0077028583555
137,4758.88575692549,4758.88575692549,4766.042750598039,4783.698930338714
138,4791.685905017615,4791.685905017615,4793.957962538389,4807.243348257023
139,4814.757999619651,4814.757999619651,4823.083122776842,4842.396158562825
140,4829.63919761614,4829.63919761614,4859.01382063755,4866.956718944673
141,4843.426703915866,4859.01382063755,4879.796521278121,4896.482078526291
142,4899.9222053184085,4899.9222053184085,4906.8217734729205,4926.252123586673
143,4913.625995640719,4913.625995640719,4926.252123586673,4944.198088122674
144,4942.008391390137,4942.008391390137,4946.933086917019,4963.204185474535
145,4956.308240887354,4956.308240887354,4969.975988451793,4988.146593744899
146,5001.419642977049,5001.419642977049,5007.480297860126,5020.059221028962
147,5039.693665448725,5039.693665448725,5048.263057091056,5062.715792415409
148,5063.011238190805,5063.011238190805,5066.539267814168,5079.325797356343
149,5076.467993684079,5076.467993684079,5090.27524906388,5106.394732148828
150,5090.963874263877,5090.963874263877,5106.394732148828,5119.218061190346
151,5132.141532670733,5132.141532670733,5138.063320693881,5150.866364838772
152,5146.8527980018025,5146.8527980018025,5152.450402298565,5174.471247335166
153,5162.294409505994,5162.294409505994,5174.471247335166,5192.879229734309
154,5211.486687167141,5211.486687167141,5217.92544248933,5231.449815003997
155,5239.552781737186,5239.552781737186,5252.688306777294,5268.423958019946
156,5257.6585821692215,5257.6585821692215,5268.423958019946,5279.560984483652
157,5276.7157713910965,5276.7157713910965,5281.228602246636,5302.171151805318
158,5287.91453222959,5287.91453222959,5302.171151805318,5317.17568356805
159,5315.843081607838,5315.843081607838,5321.8577552542665,5337.6908913249945
160,5331.136875274322,5331.136875274322,5337.6908913249945,5351.215278852688
161,5381.58079665564,5381.58079665564,5389.8981771932495,5404.604747830901
162,5409.22692296914,5409.22692296914,5417.132419945051,5430.382463875217
163,5433.573298100174,5433.573298100174,5435.432958214171,5454.846642020664
164,5461.959116916471,5461.959116916471,5463.977034609432,5482.135351012722
165,5475.953442106084,5475.953442106084,5482.135351012722,5492.274907612879
166,5488.35352709175,5488.35352709175,5502.20555403311,5521.432536987686
167,5505.623313907185,5505.623313907185,5521.432536987686,5536.1294223963005
168,5519.574847951959,5519.574847951959,5536.687750148031,5554.0304597819695
169,5577.5552854461075,5577.5552854461075,5613.568884605978,5632.377026718086
170,5618.60012459253,5618.60012459253,5632.377026718086,5646.143926674994
171,5673.622009597289,5673.622009597289,5674.5168959554685,5691.894361297485
172,5712.346440142669,5712.346440142669,5738.975421925205,5757.836299748908
173,5751.317652623921,5751.317652623921,5798.335846617179,5815.3618112377935
174,5779.000798542249,5798.335846617179,5815.3618112377935,5835.491132908135
175,5808.665676082141,5812.239074692249,5835.491132908135,5852.511184754574
176,5862.796687886011,5862.796687886011,5866.150644366002,5884.615899670283
177,5908.260249980986,5908.260249980986,5908.451258672628,5926.098731761694
178,5963.372728058938,5963.372728058938,5964.142515662168,5981.693421665346
179,6021.425961893864,6021.425961893864,6023.804799172417,6043.534623564118
180,6050.8852254228,6050.8852254228,6054.307786022784,6069.642366077945
181,6104.680577323457,6104.680577323457,6106.471215378737,6126.3496095935125
182,6158.111824090285,6158.111824090285,6170.769602711833,6187.200980530731
183,6182.627674005232,6182.627674005232,6191.105692230558,6208.937272325272
184,6239.1413733450445,6239.1413733450445,6242.517094949741,6260.148064069199
185,6269.155075194806,6269.155075194806,6278.842297676555,6294.365889277891
186,6319.402687213331,6319.402687213331,6323.691862132497,6337.162136733541
187,6334.108582170505,6334.108582170505,6337.162136733541,6350.639026237753
188,6384.580039350718,6384.580039350718,6395.742319200174,6414.3048842143135
189,6405.056363477623,6405.056363477623,6415.302975727458,6431.4103280785075
190,6425.8784800499725,6425.8784800499725,6434.773911094705,6453.473407639534
191,6471.175992857895,6471.175992857895,6474.113458372092,6487.058936999028
192,6518.87263161787,6518.87263161787,6521.066884363765,6530.601863363498
193,6532.299424974434,6532.299424974434,6533.511985256739,6553.414176541287
194,6545.232119307388,6545.232119307388,6553.414176541287,6569.734900640359
195,6562.346422960665,6562.346422960665,6575.784953005569,6593.2133327459405
196,6616.696503819531,6616.696503819531,6627.494542667736,6651.126233941911
197,6651.787891163267,6651.787891163267,6657.2066831438615,6674.20720716634
198,6707.41910612567,6707.41910612567,6737.271868888595,6752.993310012239
199,6763.699879443366,6763.699879443366,6769.290626493909,6784.8672178954375
200,6787.243643262357,6787.243643262357,6813.55354576696,6824.359427363517
201,6817.187123834968,6817.187123834968,6837.586264156317,6858.241974050762
202,6868.859233916387,6868.859233916387,6873.4651893386745,6887.8897632941635
203,6906.417914826513,6906.417914826513,6926.3345177943465,6941.984189417727
204,6929.326259622928,6929.326259622928,6941.984189417727,6958.83748524765
205,6981.610863997586,6981.610863997586,6982.751910151281,6995.057678955438
206,7012.261832072342,7012.261832072342,7017.554356758148,7038.244171602895
207,7059.597965643182,7059.597965643182,7093.43038240167,7108.778521910852
208,7099.043752771785,7099.043752771785,7108.778521910852,7123.932793529187
209,7142.474972905341,7142.474972905341,7147.470240182483,7162.18979037528
210,7182.5627318819,7182.5627318819,7191.432778184324,7204.64577153415
211,7236.133505666614,7236.133505666614,7239.285921772459,7247.097555275821
212,7269.640709548553,7269.640709548553,7287.7216075795195,7297.43103762208
213,7294.876420271303,7294.876420271303,7297.851065668697,7313.924620817691
214,7321.398584408993,7321.398584408993,7327.103039146887,7340.935134437202
215,7369.949996873095,7369.949996873095,7375.474758999514,7388.5787867308545
216,7422.513901203726,7422.513901203726,7435.809679092763,7451.151786844106
217,7475.568521674481,7475.568521674481,7479.834895914242,7497.468524172601
218,7504.910765070252,7504.910765070252,7525.930722734587,7542.477059852403
219,7547.033843693442,7547.033843693442,7547.966996886357,7557.914339343985
220,7572.287493279822,7572.287493279822,7589.319585191234,7603.286601817118
221,7627.4884094240315,7627.4884094240315,7629.504911790134,7645.025664970974
222,7676.385799189094,7676.385799189094,7681.540761651564,7705.074181327889
223,7734.920443659839,7734.920443659839,7744.637867909204,7761.2941740398255
224,7749.806866864684,7749.806866864684,7767.645639986485,7783.199507016003
225,7762.324380635987,7767.645639986485,7784.198370431889,7799.233369069566
226,7774.219746770096,7784.198370431889,7799.233369069566,7819.5598966586485
227,7794.7399998498195,7794.7399998498195,7819.5598966586485,7834.53884273673
228,7845.066757224167,7845.066757224167,7855.034838037561,7870.868270620422
229,7899.736949190733,7899.736949190733,7924.394647309342,7943.130290341394
230,7954.9202498729965,7954.9202498729965,7968.893497142781,7982.855155066696
231,7977.597173418852,7977.597173418852,7982.855155066696,7998.725578581806
232,7996.152784003074,7996.152784003074,8011.745737826481,8023.319720635337
233,8045.303716635451,8045.303716635451,8055.1596653178,8071.827541615408
234,8070.175295297751,8070.175295297751,8087.473732161932,8108.4912417325
235,8091.364043003314,8091.364043003314,8108.4912417325,8124.478356980055
236,8103.0977151758025,8103.0977151758025,8124.478356980055,8144.749724135259
237,8116.931551942631,8118.9640380367955,8144.749724135259,8158.4110856300285
238,8140.10404228252,8140.10404228252,8158.4110856300285,8172.866443515446
239,8171.587754327291,8171.587754327291,8174.789188853159,8187.0975988958735
240,8230.361117621795,8230.361117621795,8234.740184600923,8250.622895312508
241,8244.447026029802,8244.447026029802,8250.622895312508,8267.86168414899
242,8267.003559401886,8267.003559401886,8274.256357322318,8288.135520374673
243,8322.715324820105,8322.715324820105,8353.043603392793,8372.031789672365
244,8352.171238290719,8353.043603392793,8372.031789672365,8381.641515235522
245,8369.038471144995,8369.038471144995,8381.641515235522,8398.823294691632
246,8408.54806792395,8408.54806792395,8410.849156110346,8428.598796700628
247,8437.070438570185,8437.070438570185,8450.656388529453,8466.79410057747
248,8473.799970192746,8473.799970192746,8479.767301197284,8488.87930496292
249,8519.239309634873,8519.239309634873,8532.038153779773,8548.417373945233
250,8537.99647125397,8537.99647125397,8556.470487875376,8569.280946289351
251,8594.46743641465,8594.46743641465,8596.587941628673,8610.93648463776
252,8619.296032489281,8619.296032489281,8638.228221403642,8649.988965374638
253,8633.966740344677,8638.228221403642,8654.120123750536,8667.380900406934
254,8654.479917477025,8654.479917477025,8689.814640599347,8705.844934940485
255,8712.314377807901,8712.314377807901,8720.719019306727,8737.473674295288
256,8725.814733756668,8725.814733756668,8737.473674295288,8749.995436852014
