# file created by code in harbour_fns_1896438.jl
# file created on 2026-03-09 at 15:39:38
# parameter: seed = 1896498
# parameter: T = 30000.0
# parameter: lower_interarrival = 11.0
# parameter: upper_interarrival = 59.0
# parameter: mean_process_times = [11.0, 16.0]
# parameter: max_queue = [9223372036854775807, 4]
# parameter: time_units = hours
id,arrival_time,start_service_times,start_service_times,completion_time
1,0.0,0.0,2.5502822732446684,23.676387634733825
2,35.35724443798995,35.35724443798995,50.534034621054566,68.0943889287522
3,90.59150702778868,90.59150702778868,99.02229134848525,116.45596102403003
4,114.68962225606862,114.68962225606862,124.16221263591045,143.51218001150616
5,155.62894533440547,155.62894533440547,158.3195356524281,177.7942213254109
6,205.02927433631584,205.02927433631584,211.57044879428793,228.2340662128073
7,226.8125607739174,226.8125607739174,233.10977781317104,252.96518645278
8,266.2029397897186,266.2029397897186,280.8394901973203,299.341073448388
9,315.90310043888826,315.90310043888826,321.45273321380665,334.58674021091235
10,341.03998466030606,341.03998466030606,362.13408740126454,375.41002276659594
11,370.5884868274445,370.5884868274445,375.41002276659594,394.6937879506888
12,399.80606104347135,399.80606104347135,401.9170691420463,419.3162700497193
13,419.5300129437814,419.5300129437814,427.95907415330794,441.69736645159804
14,447.02268088929037,447.02268088929037,461.1841566223828,473.21614493668466
15,474.47242199511624,474.47242199511624,498.51247566359115,508.38224080089395
16,522.7120622036442,522.7120622036442,539.290971736894,555.0629266946193
17,563.1808008153332,563.1808008153332,566.74323805308,581.0408889636984
18,621.8905221658198,621.8905221658198,640.8509382332384,657.928403664494
19,639.9997482659825,640.8509382332384,657.928403664494,676.1541368744702
20,673.5404379815585,673.5404379815585,692.0687225600009,704.7086185680698
21,695.9679807776783,695.9679807776783,704.7086185680698,722.347002033802
22,711.068190276709,711.068190276709,753.56136549099,769.2148182344241
23,741.8898242883292,753.56136549099,769.2148182344241,783.0771358852394
24,788.9113978157195,788.9113978157195,794.4005095110523,806.6304035673533
25,804.0569223546963,804.0569223546963,810.9565765321317,828.9645613353756
26,862.3593653510015,862.3593653510015,873.057607121288,893.9925643573528
27,912.8223333050607,912.8223333050607,918.5685397297149,936.8732618891199
28,934.4503836864474,934.4503836864474,996.3876807367866,1012.6603364463449
29,949.9686697914058,996.3876807367866,1012.6603364463449,1028.9181615740943
30,996.5813406755992,1007.9204452906843,1031.03521170668,1048.7791578637784
31,1046.9364564041236,1046.9364564041236,1058.9959822506883,1075.6660867861347
32,1076.2883829714067,1076.2883829714067,1076.9974433179964,1096.184568451686
33,1110.0796903652433,1110.0796903652433,1111.219090074524,1124.4036600409217
34,1131.3039994590865,1131.3039994590865,1152.1120117103355,1167.450387503773
35,1182.279734620682,1182.279734620682,1187.826111234348,1207.8801441835383
36,1203.981165993787,1203.981165993787,1236.930674511796,1251.2714375617065
37,1222.6046567687229,1236.930674511796,1251.2714375617065,1269.4309219206086
38,1252.09578976927,1252.09578976927,1269.4309219206086,1280.8691798020716
39,1281.967204012248,1281.967204012248,1283.7593652040616,1304.8405100380712
40,1338.9848014121176,1338.9848014121176,1346.535995493957,1359.9359528036023
41,1397.6729320477316,1397.6729320477316,1402.1334759417928,1421.4759937117494
42,1430.1347929472754,1430.1347929472754,1462.519453932962,1477.0541798960421
43,1450.5071319254514,1462.519453932962,1477.0541798960421,1494.8144483143872
44,1474.024112862166,1474.024112862166,1499.9206204906077,1514.453245727492
45,1528.5966757607175,1528.5966757607175,1530.5033026224287,1545.404075853374
46,1555.3223375713512,1555.3223375713512,1559.040787926367,1581.631047042677
47,1569.783086340241,1569.783086340241,1606.212580336216,1628.8282862937601
48,1624.4491091629077,1624.4491091629077,1644.1806421864353,1655.4109438081734
49,1648.1308433385623,1648.1308433385623,1658.0779377960428,1670.8495848538782
50,1665.2495397104365,1665.2495397104365,1679.2410343650079,1699.8306590203074
51,1681.137348943094,1681.137348943094,1699.8306590203074,1715.8038519385989
52,1736.4627256116264,1736.4627256116264,1742.078155640094,1753.7912357039024
53,1753.4940289448116,1753.4940289448116,1757.233134173828,1770.8411591204065
54,1811.8020603622758,1811.8020603622758,1820.6583040533876,1838.1385547745501
55,1842.780886066081,1842.780886066081,1843.8523417598649,1860.9193411644776
56,1857.6917541060204,1857.6917541060204,1865.820545505753,1887.043903672309
57,1879.2909177995239,1879.2909177995239,1887.043903672309,1904.862540258259
58,1895.5196373255892,1895.5196373255892,1904.862540258259,1928.6849427366337
59,1928.0262665180069,1928.0262665180069,1937.5502389851927,1951.4380891756946
60,1973.15518621215,1973.15518621215,1990.840476228211,2008.1811421917846
61,2024.8577534545116,2024.8577534545116,2042.5210218179352,2057.3687724573433
62,2062.1934339028444,2062.1934339028444,2063.9108173657346,2079.7998871615805
63,2100.9223540399794,2100.9223540399794,2122.5921756725456,2140.4974835538815
64,2159.5433181034628,2159.5433181034628,2170.0112762523736,2186.710882871615
65,2196.1336885313813,2196.1336885313813,2198.5338815619443,2213.800340184726
66,2253.679216418138,2253.679216418138,2254.347530848957,2273.2555592565363
67,2265.049097336659,2265.049097336659,2304.02914963217,2324.0978282926158
68,2297.2722384315157,2304.02914963217,2324.0978282926158,2344.376923391594
69,2314.4438659554535,2316.155482220979,2344.376923391594,2357.0648495909227
70,2338.6247913970055,2338.6247913970055,2357.0648495909227,2364.006150070736
71,2365.7765514906773,2365.7765514906773,2372.5776270633237,2380.2904559098138
72,2418.3333240987477,2418.3333240987477,2423.9788368910476,2436.9966665045717
73,2452.0400440437334,2452.0400440437334,2453.05111753479,2465.1361396857515
74,2478.924917414484,2478.924917414484,2486.2968600179365,2504.900800918121
75,2524.1091301741026,2524.1091301741026,2550.334379635402,2567.154549704319
76,2547.267389054364,2550.334379635402,2571.4503259780545,2586.5862845931338
77,2596.5848803148847,2596.5848803148847,2600.568530316771,2620.484332450942
78,2634.838315587847,2634.838315587847,2673.0897903252107,2691.841499415554
79,2656.6136375771466,2673.0897903252107,2691.841499415554,2715.0644047435176
80,2676.6581659404665,2677.431807277386,2715.0644047435176,2729.8412266893224
81,2727.13476615281,2727.13476615281,2734.2473005334477,2752.9861062204736
82,2769.0088689236186,2769.0088689236186,2785.315715933232,2805.0755371594814
83,2791.38366124076,2791.38366124076,2805.0755371594814,2821.264395474815
84,2827.6514623189278,2827.6514623189278,2836.0482094093554,2850.6062647989806
85,2880.139107134366,2880.139107134366,2883.1753438324868,2901.8427535505143
86,2900.5374451859793,2900.5374451859793,2912.9433353911977,2925.213103626687
87,2938.9659355129656,2938.9659355129656,2941.99991798131,2961.6774833845157
88,2991.5634648315167,2991.5634648315167,3030.361925755074,3047.7135887550958
89,3023.7595819665867,3030.361925755074,3047.7135887550958,3060.417042543208
90,3067.2862583075075,3067.2862583075075,3101.440897317714,3115.9761284318533
91,3106.431784316572,3106.431784316572,3115.9761284318533,3127.0011968558492
92,3159.210674827432,3159.210674827432,3171.1712769131505,3187.1574402049728
93,3186.3818654092565,3186.3818654092565,3187.266142153954,3202.5517996433696
94,3237.1130145571283,3237.1130145571283,3260.8906690023396,3273.8243906680214
95,3267.094699396718,3267.094699396718,3273.8243906680214,3292.4241072074
96,3279.8928811193473,3279.8928811193473,3297.3959557441003,3314.33673136113
97,3294.042214371673,3297.3959557441003,3314.33673136113,3333.1016947120143
98,3338.916565254167,3338.916565254167,3338.9889314464,3352.628087603241
99,3370.9264349510663,3370.9264349510663,3374.6134854981356,3382.473656815688
100,3402.4083908739094,3402.4083908739094,3419.3555011823973,3435.6338769419085
101,3415.1753784033785,3419.3555011823973,3473.8693463556497,3485.874612425888
102,3445.2173278703517,3473.8693463556497,3485.874612425888,3507.2542373199894
103,3492.232225513938,3492.232225513938,3507.2542373199894,3528.3863717616346
104,3534.4999995666535,3534.4999995666535,3545.7998828448995,3564.615873737296
105,3551.832234878998,3551.832234878998,3564.615873737296,3576.696249282394
106,3593.491744816459,3593.491744816459,3599.356966149976,3619.5424337729196
107,3629.7338373855982,3629.7338373855982,3630.843604106032,3647.0393906004188
108,3680.208254839161,3680.208254839161,3699.215215910763,3715.362976200407
109,3733.219993916532,3733.219993916532,3734.8258269705134,3748.912985474099
110,3754.711223718913,3754.711223718913,3771.563537692687,3789.9960628252834
111,3812.617825280784,3812.617825280784,3840.5453087299375,3857.500362686263
112,3836.4676077648396,3840.5453087299375,3883.687029635432,3901.673483806567
113,3847.497641397007,3883.687029635432,3920.012579559466,3941.192424149693
114,3861.496064996976,3920.012579559466,3941.192424149693,3959.310222349554
115,3894.3289992089954,3930.528149421426,3959.310222349554,3974.029884886545
116,3950.3618636332403,3950.3618636332403,3974.029884886545,3986.7008411907223
117,3972.232914153687,3972.232914153687,3986.7008411907223,4006.7859346807677
118,3988.3781823140425,3988.3781823140425,4037.289855475907,4050.604671082312
119,4041.2797237241452,4041.2797237241452,4050.604671082312,4065.0437194914766
120,4100.191107252258,4100.191107252258,4124.271698513161,4140.546715121045
121,4156.361233931646,4156.361233931646,4171.073800534798,4191.284381749868
122,4178.932852528683,4178.932852528683,4191.284381749868,4209.451239233699
123,4227.991063310373,4227.991063310373,4231.805437453721,4242.773769506265
124,4265.700537609313,4265.700537609313,4310.535954535852,4326.652074344145
125,4310.198157958697,4310.535954535852,4326.652074344145,4339.2060871386375
126,4328.868557078326,4328.868557078326,4339.2060871386375,4353.529163086824
127,4359.284285346911,4359.284285346911,4374.082755946697,4388.777061869693
128,4376.06882422579,4376.06882422579,4388.777061869693,4400.599149259528
129,4414.323524707555,4414.323524707555,4417.444344345317,4431.823376531745
130,4453.59365785746,4453.59365785746,4492.714530565087,4505.43141899471
131,4483.371382623884,4492.714530565087,4505.43141899471,4518.797327350754
132,4500.623037363248,4500.623037363248,4522.100046610152,4538.697623313945
133,4529.005244712286,4529.005244712286,4541.9337912603405,4559.427659608283
134,4549.879607471835,4549.879607471835,4569.305300314518,4583.018921331665
135,4590.547681446475,4590.547681446475,4643.747368291401,4657.408108962305
136,4629.824121921639,4643.747368291401,4695.41455703634,4709.734950355926
137,4681.405706930812,4695.41455703634,4709.734950355926,4723.87606620496
138,4710.6022614410385,4710.6022614410385,4728.38544753351,4747.114618587276
139,4760.209185736143,4760.209185736143,4762.062861704057,4778.298449409078
140,4818.641640517477,4818.641640517477,4823.937898364815,4839.073648216207
141,4868.047650396709,4868.047650396709,4882.772934286248,4899.225561076162
142,4906.215768249156,4906.215768249156,4909.910393728779,4927.175481069173
143,4944.0381917734885,4944.0381917734885,4947.494405941476,4962.783496499447
144,4991.85851081891,4991.85851081891,4995.870476087219,5010.942225738258
145,5034.167292833242,5034.167292833242,5036.072061465407,5053.712404527716
146,5089.316145935019,5089.316145935019,5096.574614861943,5114.709497313333
147,5113.655884121887,5113.655884121887,5137.259619352666,5151.91028068352
148,5162.514076555832,5162.514076555832,5195.557962428428,5217.049662764669
149,5179.662879579407,5195.557962428428,5217.049662764669,5233.350612076384
150,5212.45807237137,5212.45807237137,5233.350612076384,5254.055858450858
151,5262.588529459044,5262.588529459044,5274.73639980886,5292.468293684247
152,5301.3197620092415,5301.3197620092415,5320.99139527428,5336.000469087259
153,5345.541444895861,5345.541444895861,5382.297603075855,5399.889149857678
154,5374.922785299069,5382.297603075855,5399.889149857678,5415.210554901745
155,5401.384806606032,5401.384806606032,5415.210554901745,5429.09498826095
156,5430.9095343789695,5430.9095343789695,5456.749729279201,5474.207909389784
157,5485.219291346026,5485.219291346026,5499.990054413188,5513.129626957365
158,5524.215300742064,5524.215300742064,5534.993311332812,5552.02518965241
159,5565.433403507765,5565.433403507765,5581.2567001257985,5601.128755540588
160,5590.004200578319,5590.004200578319,5601.128755540588,5612.2097745661085
161,5643.350626551544,5643.350626551544,5663.575995480849,5680.416997361796
162,5701.255318763371,5701.255318763371,5707.718153425706,5724.572265753571
163,5731.801446279029,5731.801446279029,5737.883145748415,5753.512069781825
164,5773.646650665476,5773.646650665476,5785.927816252748,5802.120184602924
165,5824.781643012578,5824.781643012578,5827.568267074017,5847.590339205622
166,5855.200338699407,5855.200338699407,5873.4105232515685,5886.086388790046
167,5899.511649103181,5899.511649103181,5922.682930348039,5941.042968748327
168,5922.795324705435,5922.795324705435,5946.814962047594,5959.098981562731
169,5959.802435588526,5959.802435588526,5968.999772460545,5983.051030697197
170,5976.7963410168995,5976.7963410168995,5987.291800792076,6002.527953025283
171,6018.665458614242,6018.665458614242,6025.338335524872,6042.139802469392
172,6077.497674401444,6077.497674401444,6101.523968233674,6117.6370122867565
173,6104.595353301832,6104.595353301832,6117.6370122867565,6134.337230702832
174,6147.180390338205,6147.180390338205,6152.417822450997,6164.4547681009035
175,6191.429068249908,6191.429068249908,6202.162939989179,6212.955800200729
176,6214.740907260478,6214.740907260478,6223.575881494065,6237.57972075225
177,6231.142778841544,6231.142778841544,6255.1509877193475,6273.226689251195
178,6263.437019210855,6263.437019210855,6273.226689251195,6291.468902369455
179,6311.251397453558,6311.251397453558,6325.897046537749,6346.1021126165915
180,6365.168414260339,6365.168414260339,6368.665464866985,6380.315130943836
181,6419.189158569015,6419.189158569015,6436.954656970509,6454.81685289956
182,6454.505462411349,6454.505462411349,6485.641025022772,6502.934664469254
183,6466.421103663881,6485.641025022772,6502.934664469254,6520.632691817732
184,6492.631143239019,6492.631143239019,6520.632691817732,6538.879642532474
185,6509.2065181372045,6509.2065181372045,6538.879642532474,6557.844380299813
186,6531.655633452219,6531.655633452219,6557.844380299813,6571.2062640575805
187,6556.443687400569,6556.443687400569,6571.2062640575805,6589.029996876624
188,6576.267312765558,6576.267312765558,6589.029996876624,6606.732249854949
189,6632.669542249028,6632.669542249028,6651.558153735425,6672.483497154061
190,6656.4817534264575,6656.4817534264575,6672.483497154061,6693.359981272363
191,6672.265943799941,6672.265943799941,6693.359981272363,6714.126960879364
192,6704.094905063751,6704.094905063751,6750.771198350834,6764.949777762028
193,6749.246243355312,6750.771198350834,6764.949777762028,6784.302981523741
194,6763.749825805907,6763.749825805907,6784.302981523741,6801.232672398161
195,6782.699010000523,6782.699010000523,6801.232672398161,6822.149194774392
196,6810.298399072956,6810.298399072956,6823.574167934509,6837.90187290827
197,6858.189984676954,6858.189984676954,6904.798619120334,6918.9740872672055
198,6885.903367831711,6904.798619120334,6921.063570748188,6937.868894080326
199,6916.855077626293,6921.063570748188,6940.965878681229,6955.213926815403
200,6930.659739723304,6940.965878681229,6955.213926815403,6965.874954756176
201,6955.009027120169,6955.009027120169,6965.874954756176,6982.038327650306
202,7002.120030719153,7002.120030719153,7007.9887048615565,7020.653860225827
203,7031.279221362298,7031.279221362298,7046.669547152802,7067.213012268776
204,7080.8024771297105,7080.8024771297105,7101.993236417163,7119.461998187645
205,7114.3166266506705,7114.3166266506705,7127.174984120079,7145.396710385011
206,7127.573031514237,7127.573031514237,7145.396710385011,7163.039295615143
207,7155.754370754212,7155.754370754212,7168.491674627192,7188.129467494576
208,7209.640364204089,7209.640364204089,7210.034540185077,7227.472862003761
209,7259.309976123221,7259.309976123221,7269.484124412239,7286.360384242478
210,7270.750055517064,7270.750055517064,7286.360384242478,7303.316866184546
211,7328.815545153687,7328.815545153687,7329.212551615884,7349.645272505728
212,7344.248775892727,7344.248775892727,7351.919283822238,7368.068978158216
213,7382.7281259645215,7382.7281259645215,7429.320922834419,7442.607220612163
214,7396.583950739887,7429.320922834419,7442.607220612163,7454.532783115236
215,7437.063111691703,7437.063111691703,7454.532783115236,7472.167153499934
216,7456.788981531853,7456.788981531853,7472.167153499934,7484.752821332067
217,7511.215954105652,7511.215954105652,7513.707179873582,7533.126287872612
218,7522.929390174452,7522.929390174452,7533.126287872612,7548.882032191527
219,7569.201868728902,7569.201868728902,7587.058060387861,7602.4561085421565
220,7606.489893293007,7606.489893293007,7615.883301755483,7630.805246121527
221,7617.927445195797,7617.927445195797,7653.973639574896,7667.6718210234985
222,7647.727043830486,7653.973639574896,7667.6718210234985,7685.210106644322
223,7705.881538881196,7705.881538881196,7716.33666468474,7730.564201158624
224,7757.404692964484,7757.404692964484,7765.287243442596,7782.864554803755
225,7796.179942314045,7796.179942314045,7805.511455392711,7819.980837567879
226,7823.686028571945,7823.686028571945,7825.655578212957,7840.856341125452
227,7861.468035519575,7861.468035519575,7867.380079700633,7882.514170084185
228,7914.889230396385,7914.889230396385,7952.0982982361775,7966.500915756918
229,7930.493889247288,7952.0982982361775,7966.500915756918,7983.613157100876
230,7968.248201101988,7968.248201101988,7983.613157100876,7999.412746240699
231,8010.428304644436,8010.428304644436,8065.530208752321,8076.8687928397385
232,8035.283847635926,8065.530208752321,8076.8687928397385,8094.460948899806
233,8059.467252652925,8067.9942889609565,8094.460948899806,8109.067855313305
234,8074.008880665507,8074.588909313282,8118.7953553189445,8139.166238308605
235,8103.728879973366,8118.7953553189445,8139.166238308605,8165.783868674482
236,8162.41974971989,8162.41974971989,8165.783868674482,8175.705453279004
237,8204.379783725093,8204.379783725093,8218.602955291755,8235.549885214032
238,8252.570006959866,8252.570006959866,8279.772833535657,8295.43860123364
239,8308.269578608317,8308.269578608317,8332.115892278007,8347.4295690155
240,8330.798638683453,8332.115892278007,8347.4295690155,8366.152507174325
241,8351.671687759956,8351.671687759956,8366.152507174325,8383.056988460994
242,8378.091076017416,8378.091076017416,8389.35405519585,8406.816173980349
243,8407.126638165555,8407.126638165555,8412.548603701563,8431.054083891595
244,8437.639814276781,8437.639814276781,8440.349785059672,8455.104439727947
245,8455.529084301677,8455.529084301677,8461.935742763004,8473.171768801176
246,8486.109459686495,8486.109459686495,8490.912646639861,8506.083248531195
247,8524.140739464237,8524.140739464237,8545.95654540664,8561.496145753174
248,8570.40763645193,8570.40763645193,8572.286345528844,8589.214428115907
249,8583.791127575934,8583.791127575934,8589.214428115907,8599.58850360679
250,8599.250070071677,8599.250070071677,8603.429736795191,8618.437448431521
251,8656.46073464937,8656.46073464937,8657.380876059946,8675.812717189414
252,8673.415812508749,8673.415812508749,8699.284683059906,8715.5803975146
253,8702.30921963971,8702.30921963971,8715.5803975146,8728.732984796727
254,8728.566560609239,8728.566560609239,8738.131806251045,8751.104690513052
255,8785.652774422993,8785.652774422993,8787.727094589414,8802.175459458567
256,8817.513293614706,8817.513293614706,8820.495295036028,8839.403880751082
