# file created by code in harbour_fns_1896438.jl
# file created on 2026-03-09 at 15:39:43
# parameter: seed = 1896578
# parameter: T = 30000.0
# parameter: lower_interarrival = 11.0
# parameter: upper_interarrival = 59.0
# parameter: mean_process_times = [11.0, 16.0]
# parameter: max_queue = [9223372036854775807, 4]
# parameter: time_units = hours
id,arrival_time,start_service_times,start_service_times,completion_time
1,0.0,0.0,23.66751146095592,36.182971086411115
2,45.45552850178174,45.45552850178174,67.31673104263723,82.84702292676064
3,95.25808563070464,95.25808563070464,107.88032336444557,123.36325144331386
4,143.2743003719651,143.2743003719651,145.22016021741493,159.69387886412488
5,193.00438555522652,193.00438555522652,204.94849533066727,217.99468786105325
6,244.42717016483715,244.42717016483715,247.4850499053125,267.41255082025424
7,282.18734383062,282.18734383062,301.2067535902776,316.0533497944944
8,308.59705517403506,308.59705517403506,316.0533497944944,322.564236551502
9,364.37475715152743,364.37475715152743,372.1793979704561,386.2490306177759
10,418.29222778033636,418.29222778033636,421.0252225634025,432.8726275166859
11,469.53199934746294,469.53199934746294,478.95266872792007,492.1192831398243
12,520.5650621631049,520.5650621631049,567.124344651287,583.7574397014768
13,576.1189363734785,576.1189363734785,583.7574397014768,599.6189902039813
14,587.8861436415525,587.8861436415525,599.6189902039813,610.3314682661146
15,630.5232186573649,630.5232186573649,644.7381280041564,661.9669996788944
16,678.4260282847749,678.4260282847749,695.6248328718646,711.0553062935319
17,700.914136972434,700.914136972434,737.5664211831622,753.9446250591914
18,723.1611466523622,737.5664211831622,753.9446250591914,770.8224348242821
19,775.0501203969801,775.0501203969801,780.7283941514258,798.1210949431293
20,831.6840215029459,831.6840215029459,845.4374573116474,862.0433734929002
21,870.994918268446,870.994918268446,894.3707215232007,910.5475143611936
22,900.1390928957853,900.1390928957853,910.5475143611936,922.6377344297687
23,955.6732140080443,955.6732140080443,955.8270330479778,967.2185770664764
24,985.1087348614735,985.1087348614735,985.6882973828964,1001.0326587788652
25,1016.4950586432727,1016.4950586432727,1035.6823973154521,1050.359483127158
26,1058.9493131282647,1058.9493131282647,1072.7600332417485,1093.1419070176557
27,1098.7857193249388,1098.7857193249388,1101.9198511456555,1116.774714119837
28,1150.7755793196843,1150.7755793196843,1155.6524654288917,1171.218645732561
29,1206.7670337956763,1206.7670337956763,1209.9472245760917,1224.316286117431
30,1262.496751407228,1262.496751407228,1266.0379730468544,1282.91904578342
31,1288.4339358083328,1288.4339358083328,1310.3707600135313,1319.0504155685298
32,1307.8254273792963,1310.3707600135313,1319.0504155685298,1339.161334155124
33,1359.4444394098734,1359.4444394098734,1360.5665524856242,1377.2789027751742
34,1381.7125763499962,1381.7125763499962,1416.4224081128948,1433.9503393182251
35,1437.4388631512647,1437.4388631512647,1442.401957438918,1458.207853954389
36,1484.6932807853714,1484.6932807853714,1501.8633498919894,1519.309081410642
37,1517.35649048403,1517.35649048403,1519.309081410642,1533.2150246760802
38,1567.3300797177453,1567.3300797177453,1588.3460135254722,1606.340324619596
39,1591.3815219532562,1591.3815219532562,1606.340324619596,1625.0920943802653
40,1627.7713603938487,1627.7713603938487,1633.9678365560299,1650.236560167902
41,1640.227602964169,1640.227602964169,1654.8318043445602,1672.5176603934938
42,1666.3757129954004,1666.3757129954004,1672.5176603934938,1685.599763499016
43,1683.9364018652943,1683.9364018652943,1693.3166116298744,1709.873912163426
44,1727.9999536357616,1727.9999536357616,1731.8854642972613,1746.7112842062716
45,1752.579317794462,1752.579317794462,1755.8708595423125,1770.926241538452
46,1782.0286738515952,1782.0286738515952,1790.5771345509786,1803.4148409384989
47,1829.2032839074311,1829.2032839074311,1832.8582213444065,1845.2772485402022
48,1842.3459526551148,1842.3459526551148,1850.1112889055566,1860.7276564586848
49,1898.0642038850851,1898.0642038850851,1902.2448801426863,1916.4645593089367
50,1910.1297401810139,1910.1297401810139,1916.4645593089367,1936.435334741206
51,1960.8319819190165,1960.8319819190165,1971.3970689126265,1986.52799784011
52,1985.6698902505761,1985.6698902505761,1987.3211381787291,2004.1571430279357
53,2002.5511077831486,2002.5511077831486,2014.5963430760632,2031.9301920406288
54,2054.127373603389,2054.127373603389,2058.164309901227,2076.419509887423
55,2068.8196439032376,2068.8196439032376,2076.419509887423,2092.907008036797
56,2098.8909562639296,2098.8909562639296,2104.1948157188153,2122.6220719902735
57,2149.238469716161,2149.238469716161,2156.881836515543,2177.217828937558
58,2202.6832773335036,2202.6832773335036,2210.7268154319086,2226.632634948659
59,2247.631539900369,2247.631539900369,2280.946489794489,2295.6803552581196
60,2265.3499646888995,2280.946489794489,2297.8646973420814,2313.540013137652
61,2315.07940619939,2315.07940619939,2318.9243142193254,2339.037142099284
62,2354.5610179310456,2354.5610179310456,2358.708466258502,2376.6356366560613
63,2368.183019119646,2368.183019119646,2376.6356366560613,2389.4647327246207
64,2423.1609003361655,2423.1609003361655,2451.5815177364702,2470.7898642908
65,2469.0091306891422,2469.0091306891422,2470.7898642908,2483.7544989682865
66,2514.8006300552775,2514.8006300552775,2526.166531152705,2541.8824987909825
67,2568.8681629118405,2568.8681629118405,2577.9150046125233,2590.545274185378
68,2617.7270128912246,2617.7270128912246,2633.2119800288515,2647.948419139181
69,2653.876814540407,2653.876814540407,2669.300084026453,2686.583312044974
70,2684.68536914455,2684.68536914455,2688.5603228890736,2708.337329284897
71,2719.794134297276,2719.794134297276,2729.0591234148137,2742.9143758979626
72,2767.6265349151095,2767.6265349151095,2772.212248942108,2790.759648693802
73,2778.7155713461193,2778.7155713461193,2793.1163405691686,2806.373519464211
74,2795.5436618261174,2795.5436618261174,2806.373519464211,2820.0057186429767
75,2852.9612663273533,2852.9612663273533,2853.263617854203,2868.517884502327
76,2868.80311722221,2868.80311722221,2878.9415544911512,2896.5327707086785
77,2903.380393128169,2903.380393128169,2917.127341990564,2930.079632476181
78,2935.2041349827346,2935.2041349827346,2937.036249052985,2951.180924528461
79,2956.258533333085,2956.258533333085,2968.483468295964,2988.77261530265
80,2998.409496178555,2998.409496178555,3003.27591066129,3013.344449640338
81,3021.62008533298,3021.62008533298,3023.648012426745,3036.854645331881
82,3058.9690012407027,3058.9690012407027,3062.091287695831,3080.57022852393
83,3097.8934910228154,3097.8934910228154,3104.396882990627,3124.01012618121
84,3118.7436646569663,3118.7436646569663,3131.1980786331005,3141.9578554209434
85,3131.67377456776,3131.67377456776,3141.9578554209434,3156.6880408578377
86,3188.0815870533115,3188.0815870533115,3199.098655127423,3213.532029169974
87,3220.6520545082535,3220.6520545082535,3233.518257198448,3249.718630585992
88,3265.432391210034,3265.432391210034,3265.7757979485173,3282.042018007909
89,3289.6521923549444,3289.6521923549444,3305.949230075039,3324.4121163164846
90,3305.479587556514,3305.949230075039,3344.67894438239,3364.4726870677687
91,3320.038990865601,3344.67894438239,3367.923017540866,3378.8980348555474
92,3343.9579923963956,3367.923017540866,3378.8980348555474,3392.3443100372865
93,3359.3102829949644,3367.956545412717,3392.3443100372865,3407.8321205456386
94,3374.2628131445963,3378.4850749781085,3407.8321205456386,3424.675394345111
95,3394.2924820300454,3394.6132363841875,3428.6002907255433,3445.118499523632
96,3413.010789586674,3428.6002907255433,3445.118499523632,3462.949214186906
97,3430.844389690753,3430.844389690753,3462.949214186906,3481.65397296161
98,3462.4818467730233,3462.4818467730233,3481.65397296161,3495.2573231803467
99,3507.8344065722786,3507.8344065722786,3514.6119572489215,3523.5987850516294
100,3553.955937843453,3553.955937843453,3579.7832108615403,3595.3667748198086
101,3581.139874268892,3581.139874268892,3595.3667748198086,3611.1929921404276
102,3593.060027509832,3593.060027509832,3611.1929921404276,3627.399352866445
103,3642.9202096891813,3642.9202096891813,3653.959498586864,3665.627753032513
104,3685.1398949236673,3685.1398949236673,3691.144668276738,3705.44023973038
105,3740.392772038749,3740.392772038749,3743.072515376372,3758.2224504218557
106,3795.9198982195703,3795.9198982195703,3836.318588044968,3851.092233087339
107,3836.441455631998,3836.441455631998,3851.092233087339,3864.2651373527733
108,3869.3751104004696,3869.3751104004696,3878.614873665113,3888.6933049461495
109,3912.7268797594434,3912.7268797594434,3924.4747142335173,3942.3210618760945
110,3963.2787778719135,3963.2787778719135,3995.50540347273,4010.3167134579085
111,3984.4529894949396,3995.50540347273,4010.3167134579085,4029.835947233765
112,4032.8594460779973,4032.8594460779973,4034.957414245243,4052.7401601659853
113,4085.187202482925,4085.187202482925,4095.712872669115,4111.892279668131
114,4139.685975189012,4139.685975189012,4147.299417212694,4165.320885762542
115,4163.281476598193,4163.281476598193,4165.320885762542,4180.6490095329755
116,4180.905874992618,4180.905874992618,4186.334298833254,4200.296268806044
117,4230.333452162037,4230.333452162037,4240.690789932139,4259.774288015984
118,4272.233392471053,4272.233392471053,4274.034445767293,4289.361573779549
119,4322.342058787981,4322.342058787981,4345.188054978959,4356.810893603951
120,4366.567824087912,4366.567824087912,4377.002591333293,4398.158427300991
121,4410.081019619182,4410.081019619182,4413.905597813847,4426.18181671251
122,4427.529326277307,4427.529326277307,4456.03015324429,4472.148495790245
123,4471.450149100211,4471.450149100211,4494.415384300919,4509.771480642134
124,4497.186272034841,4497.186272034841,4509.771480642134,4528.755029527109
125,4555.224816129139,4555.224816129139,4569.683656690756,4594.288508781873
126,4600.271678123321,4600.271678123321,4602.775195600282,4621.4388094347605
127,4631.934972376285,4631.934972376285,4632.513101611668,4646.305600545598
128,4653.471765100166,4653.471765100166,4656.1425196449,4668.285745745961
129,4702.312038001009,4702.312038001009,4712.046535824399,4732.496359855429
130,4738.608880613906,4738.608880613906,4751.326432761724,4765.745428068275
131,4754.17454028843,4754.17454028843,4772.1622940400075,4789.3368331560305
132,4797.973029225234,4797.973029225234,4817.649064798601,4831.2403177963815
133,4840.071219208604,4840.071219208604,4847.542433830445,4869.314902743576
134,4880.036073963378,4880.036073963378,4891.5349677969525,4913.01984958498
135,4900.093536498129,4900.093536498129,4919.889607918533,4938.402369095982
136,4948.873172620546,4948.873172620546,4968.781841470618,4982.7423353877975
137,4994.395366580481,4994.395366580481,4996.982248669426,5015.8879303836375
138,5007.196152215859,5007.196152215859,5015.8879303836375,5026.3174233056025
139,5065.405777056218,5065.405777056218,5095.604396284595,5113.03790583925
140,5076.6447345714605,5095.604396284595,5113.03790583925,5128.821262325757
141,5108.842828097255,5108.842828097255,5128.821262325757,5142.165728302668
142,5123.531510573378,5123.531510573378,5142.165728302668,5153.991575659994
143,5137.096679522993,5137.096679522993,5153.991575659994,5172.808123677599
144,5188.1383087821,5188.1383087821,5189.726070338296,5203.484267012649
145,5234.058465831888,5234.058465831888,5238.325769938511,5254.757260246149
146,5247.876085160123,5247.876085160123,5282.87957867878,5298.5386542585475
147,5287.400250927978,5287.400250927978,5298.5386542585475,5311.941360689171
148,5312.978745264168,5312.978745264168,5331.700021276743,5347.208417314781
149,5328.861167169106,5331.700021276743,5347.208417314781,5360.527067360113
150,5351.565208149393,5351.565208149393,5360.527067360113,5379.806496207036
151,5382.223780374491,5382.223780374491,5406.95313074397,5422.162950184607
152,5395.495339477914,5406.95313074397,5426.944837490081,5441.380143262898
153,5443.071535288292,5443.071535288292,5456.444368013166,5472.108075157299
154,5496.629279202447,5496.629279202447,5502.453230261021,5520.022266211558
155,5529.752702453193,5529.752702453193,5550.889192194329,5568.985001188476
156,5560.232849413261,5560.232849413261,5597.333117311553,5617.893403350009
157,5605.075217552496,5605.075217552496,5620.05154152232,5642.259294595105
158,5636.372928256693,5636.372928256693,5649.309785139174,5663.853978102185
159,5688.05732716675,5688.05732716675,5713.460963464701,5731.252632923246
160,5721.7207292291405,5721.7207292291405,5731.252632923246,5747.688758459796
161,5776.8152760752755,5776.8152760752755,5781.607798005318,5799.6403613432
162,5810.124807589622,5810.124807589622,5811.373788883534,5823.623175036856
163,5861.3847449415725,5861.3847449415725,5875.862394486566,5890.483524967365
164,5899.770724526821,5899.770724526821,5912.451144800344,5928.950705259995
165,5912.484041709747,5912.484041709747,5928.950705259995,5943.601027748516
166,5934.459179092232,5934.459179092232,5943.601027748516,5961.704706410036
167,5970.96267658389,5970.96267658389,5976.955517222888,5987.166767354049
168,5991.390608701224,5991.390608701224,5999.820062138728,6014.338526721584
169,6029.0680561382815,6029.0680561382815,6029.763596235407,6048.104346721775
170,6047.004974542376,6047.004974542376,6055.631162110881,6069.376856900606
171,6082.006904502503,6082.006904502503,6083.010076150926,6095.117877272982
172,6120.446555390227,6120.446555390227,6122.634743206473,6138.171285147324
173,6149.252443488408,6149.252443488408,6152.163522093848,6165.4147596172115
174,6201.969053178518,6201.969053178518,6216.920729475543,6235.493410468685
175,6237.870699114378,6237.870699114378,6243.003670392842,6255.889705178374
176,6257.297812386949,6257.297812386949,6261.067257005842,6279.97552080098
177,6305.44928556919,6305.44928556919,6318.493541862315,6333.300611173923
178,6356.833390012411,6356.833390012411,6359.810436864678,6376.987663092906
179,6413.827148751618,6413.827148751618,6430.737418068475,6446.138351850583
180,6454.048026208667,6454.048026208667,6457.582792009615,6472.114572280746
181,6489.178375565589,6489.178375565589,6506.072933586846,6521.846817221494
182,6537.261572156481,6537.261572156481,6539.145736239985,6558.19114756429
183,6579.17752124204,6579.17752124204,6580.313529978685,6595.593158696323
184,6609.63914776759,6609.63914776759,6612.030042823088,6627.763685900975
185,6643.2723278813055,6643.2723278813055,6647.078882561847,6663.025321222853
186,6683.246580507317,6683.246580507317,6686.419331074275,6704.4158082167505
187,6695.791485006484,6695.791485006484,6708.820552783263,6725.046586249033
188,6737.798753374183,6737.798753374183,6744.514235830844,6767.7925869631135
189,6794.63997025202,6794.63997025202,6819.782706770747,6829.666729170298
190,6839.54449287116,6839.54449287116,6863.037895563192,6876.966690621114
191,6894.016120323843,6894.016120323843,6897.789325241388,6910.748842802345
192,6912.403802730265,6912.403802730265,6917.385426798138,6932.686429272181
193,6949.731414018235,6949.731414018235,6986.426327067094,7006.553415865759
194,7008.095769935206,7008.095769935206,7017.833789225712,7033.231050805874
195,7036.234515407536,7036.234515407536,7038.781073936737,7053.095364290327
196,7058.630099758449,7058.630099758449,7059.0886224530595,7076.539245816561
197,7085.1307545824075,7085.1307545824075,7092.246716141975,7104.606650821622
198,7096.334264412471,7096.334264412471,7104.606650821622,7123.451001587181
199,7117.195812498892,7117.195812498892,7123.451001587181,7136.348568779076
200,7169.090311997081,7169.090311997081,7208.317714397732,7223.19576848024
201,7206.816276982189,7208.317714397732,7224.346589496087,7241.685145702379
202,7238.4718395714635,7238.4718395714635,7295.936516260295,7313.573761137587
203,7260.7829167398395,7295.936516260295,7313.573761137587,7323.602903682503
204,7280.977288091278,7300.15535690957,7323.602903682503,7340.0493509961425
205,7309.064400235679,7311.595307935054,7340.0493509961425,7353.882767061328
206,7361.415057058491,7361.415057058491,7362.343974259661,7375.23892147245
207,7406.583862861151,7406.583862861151,7412.290995850593,7430.834221472771
208,7428.178835967505,7428.178835967505,7430.834221472771,7447.5272942311185
209,7466.359717538557,7466.359717538557,7487.661129905161,7506.236234796857
210,7478.5948667196235,7487.661129905161,7506.236234796857,7520.80294307146
211,7504.797301120193,7504.797301120193,7520.80294307146,7535.539175346042
212,7533.110728255735,7533.110728255735,7538.7354489349245,7558.111789151232
213,7573.998504125426,7573.998504125426,7583.701281601747,7601.4260755716505
214,7625.989347271434,7625.989347271434,7632.626897071084,7644.549917622216
215,7643.699422011158,7643.699422011158,7679.7637499192515,7695.097734386187
216,7659.247137640105,7679.7637499192515,7731.691900976373,7748.198787862286
217,7711.296082766745,7731.691900976373,7748.198787862286,7760.957900048719
218,7737.933389694553,7740.6424415704805,7760.957900048719,7776.18141653796
219,7783.220695485321,7783.220695485321,7783.95501929514,7797.227462121555
220,7824.0957096280745,7824.0957096280745,7833.062205585029,7848.66497540434
221,7871.280069630511,7871.280069630511,7884.4362137921635,7898.851099470004
222,7914.127741640667,7914.127741640667,7916.477904250987,7931.28147203805
223,7960.626030477419,7960.626030477419,7962.630348665913,7975.986491328626
224,7975.9562013576915,7975.9562013576915,7978.514683435288,7993.075522940956
225,8012.077366857849,8012.077366857849,8019.873477417926,8035.6159006206335
226,8035.005445254194,8035.005445254194,8050.179659912005,8066.9561802691
227,8070.63266892377,8070.63266892377,8071.401295642994,8085.47666081756
228,8092.146457527283,8092.146457527283,8094.17492722782,8104.015122393682
229,8106.6064352513495,8106.6064352513495,8118.033062472338,8130.188685141371
230,8122.234293458286,8122.234293458286,8130.188685141371,8143.837653032189
231,8179.3912089404,8179.3912089404,8196.075823878868,8219.11281830305
232,8196.693096818803,8196.693096818803,8219.11281830305,8234.862745813936
233,8213.859788754693,8213.859788754693,8234.862745813936,8252.8769242554
234,8235.502995339704,8235.502995339704,8252.8769242554,8268.86290556839
235,8262.17689674908,8262.17689674908,8275.748563895086,8289.46040367109
236,8287.096541588182,8287.096541588182,8289.46040367109,8302.971587199432
237,8326.4456441657,8326.4456441657,8340.04901790576,8354.982366377724
238,8356.206056687808,8356.206056687808,8357.164572770314,8376.01167764093
239,8374.632610797316,8374.632610797316,8388.260633486463,8404.299274982883
240,8431.737191593278,8431.737191593278,8483.821415926048,8498.698826815058
241,8489.316496383251,8489.316496383251,8498.698826815058,8516.827375448413
242,8524.765759250153,8524.765759250153,8543.83181622274,8555.262796979441
243,8559.27126089328,8559.27126089328,8560.374497171462,8575.9077255678
244,8582.762296789817,8582.762296789817,8599.195853908357,8618.642418258263
245,8639.506444397255,8639.506444397255,8651.815656877174,8674.862424330828
246,8693.16418199233,8693.16418199233,8722.849026392534,8744.241418119418
247,8725.54948911389,8725.54948911389,8744.241418119418,8759.49948171966
248,8762.996287606711,8762.996287606711,8771.470277107179,8791.67974390417
249,8810.091869385245,8810.091869385245,8810.787956284945,8826.791957497464
250,8833.350211829731,8833.350211829731,8841.42017936074,8855.118804160305
251,8850.770256588092,8850.770256588092,8884.444963451291,8895.014082002444
252,8891.692409604888,8891.692409604888,8895.169851535675,8910.358105782252
253,8911.412661568695,8911.412661568695,8920.64566781808,8937.72975846356
254,8946.743147549785,8946.743147549785,8953.092495479545,8970.16558371609
255,8977.416197347591,8977.416197347591,8979.459524535712,8997.35680161113
256,9024.065159450052,9024.065159450052,9042.062738237748,9060.14644419863
257,9046.258904546505,9046.258904546505,9060.14644419863,9075.353975672668
