# file created by code in harbour_fns_1896438.jl
# file created on 2026-03-09 at 15:39:41
# parameter: seed = 1896548
# parameter: T = 30000.0
# parameter: lower_interarrival = 11.0
# parameter: upper_interarrival = 59.0
# parameter: mean_process_times = [11.0, 16.0]
# parameter: max_queue = [9223372036854775807, 4]
# parameter: time_units = hours
id,arrival_time,start_service_times,start_service_times,completion_time
1,0.0,0.0,0.15865785843849295,17.789221164090293
2,11.668671977859816,11.668671977859816,22.88799326757517,42.75590392605035
3,45.50811865461115,45.50811865461115,51.772151332077094,70.25756203080329
4,90.5550460785039,90.5550460785039,95.30815468369846,111.08456707893828
5,130.9885954724186,130.9885954724186,137.73070327310964,155.4449973037526
6,181.65295922914163,181.65295922914163,188.77770831194587,199.90352975862865
7,225.4218001843565,225.4218001843565,236.35417564330632,251.3018810686553
8,238.69926190491634,238.69926190491634,251.3018810686553,269.1765812403862
9,274.1978858842877,274.1978858842877,284.290763533719,296.43351368055403
10,311.32263661032493,311.32263661032493,317.3385672532777,328.3239476486447
11,360.4281821524559,360.4281821524559,363.10457543712727,379.04759826684614
12,403.28043674324226,403.28043674324226,411.1572880865088,424.1625234020169
13,451.39809008734204,451.39809008734204,452.8359224228814,461.7596779536715
14,499.0623451094542,499.0623451094542,503.6909093614789,516.6296174029554
15,512.0041699090216,512.0041699090216,534.6196122195221,548.9939232464509
16,548.8793750716006,548.8793750716006,556.7987514850273,568.9608866846803
17,565.4164741048405,565.4164741048405,584.185108652696,601.8508190185894
18,623.5392028930169,623.5392028930169,625.6646029670634,640.0306870912767
19,674.7607712709641,674.7607712709641,684.7390056765108,700.5733247301503
20,691.4604143554378,691.4604143554378,720.2157929414446,734.04233741987
21,715.8210034350848,720.2157929414446,737.1775675072488,753.4142160963509
22,728.8771844970677,737.1775675072488,753.4142160963509,766.0958578359432
23,743.0133980380408,743.0133980380408,766.0958578359432,780.9452500292564
24,771.355313805974,771.355313805974,789.9829941104979,806.7877831056005
25,797.9620734981697,797.9620734981697,842.6878782043447,858.3517127120158
26,845.3432935787436,845.3432935787436,875.5874971168652,891.6587316162206
27,895.9431143425454,895.9431143425454,896.5295343934665,908.1900920774038
28,932.3689593979162,932.3689593979162,952.8074002279886,967.2919854893553
29,978.1215293234552,978.1215293234552,986.6066431586408,1003.422892103524
30,1034.110645901771,1034.110645901771,1036.8043743348505,1054.5629107767484
31,1054.4735190013644,1054.4735190013644,1058.4152736391443,1076.533396752612
32,1085.939538248567,1085.939538248567,1096.2999223039797,1115.022711177995
33,1107.9420453096102,1107.9420453096102,1152.6750131589754,1164.5896788833181
34,1165.667171999965,1165.667171999965,1173.020723157036,1185.5904262208785
35,1177.6171405172981,1177.6171405172981,1192.5564630288554,1213.9632645603224
36,1230.9574063901887,1230.9574063901887,1241.6694727896263,1259.438570154449
37,1253.6504219367453,1253.6504219367453,1259.438570154449,1276.2084805871164
38,1311.938888843251,1311.938888843251,1312.4540405346795,1326.940522372271
39,1357.3926892375716,1357.3926892375716,1360.5955280065855,1373.3794532393376
40,1372.87556302433,1372.87556302433,1376.9737157450625,1389.1008556360568
41,1402.6740589562962,1402.6740589562962,1411.6032391685953,1425.6171056163028
42,1455.946748830177,1455.946748830177,1456.4574760802293,1478.7345676634745
43,1512.1195508861472,1512.1195508861472,1513.7636670982636,1530.3881900972478
44,1540.907260982857,1540.907260982857,1543.7758707256146,1561.852718635066
45,1598.7034706397878,1598.7034706397878,1619.8871249913423,1635.9625380562043
46,1610.5496568120434,1619.8871249913423,1635.9625380562043,1658.0370085063253
47,1628.368413181019,1628.368413181019,1658.0370085063253,1671.880023033658
48,1656.7963838957146,1656.7963838957146,1671.880023033658,1685.4305609527194
49,1697.7032959689457,1697.7032959689457,1727.1368208122785,1744.5951141496985
50,1754.8122371573927,1754.8122371573927,1756.3189399672453,1768.3119425548205
51,1808.9411552252795,1808.9411552252795,1840.63851347418,1857.2987167045037
52,1838.374573231991,1840.63851347418,1857.2987167045037,1870.813630712837
53,1882.021402780489,1882.021402780489,1889.7649075586876,1905.1825167063935
54,1937.837831444906,1937.837831444906,1948.2957241269778,1964.5706234460165
55,1990.0168610743365,1990.0168610743365,1996.2935984295061,2007.7495132904653
56,2048.504375673391,2048.504375673391,2053.583778448254,2064.117013039312
57,2082.146125947488,2082.146125947488,2096.780814145891,2114.2960522769567
58,2116.312654327802,2116.312654327802,2118.5499292549384,2137.1700030277766
59,2147.9840312343526,2147.9840312343526,2148.27864082263,2167.65971567033
60,2195.469861782711,2195.469861782711,2213.088756509037,2229.9413346596507
61,2232.66525303224,2232.66525303224,2237.020145053597,2251.4583875356343
62,2289.6283429874193,2289.6283429874193,2299.1792391543263,2317.0953308600924
63,2337.130115232662,2337.130115232662,2339.1448617653446,2356.9539853717392
64,2350.216176504122,2350.216176504122,2356.9539853717392,2370.9228084426295
65,2403.5973904117227,2403.5973904117227,2414.569585776833,2433.8999867444486
66,2446.58354426841,2446.58354426841,2481.8910893991206,2496.6670636363842
67,2490.9114984740295,2490.9114984740295,2496.6670636363842,2510.693864765071
68,2517.349192253732,2517.349192253732,2529.688856461796,2548.7789647457203
69,2566.3541854130344,2566.3541854130344,2581.4916113924605,2596.438041415046
70,2606.6234206748495,2606.6234206748495,2621.272479816039,2633.108368661389
71,2658.2778535273314,2658.2778535273314,2660.271704850417,2677.8950899360657
72,2697.5475391478512,2697.5475391478512,2704.12633874468,2719.5023205312955
73,2709.8239906599474,2709.8239906599474,2719.5023205312955,2733.855973673884
74,2739.6521567348304,2739.6521567348304,2743.2006197316205,2759.1905814496304
75,2795.113542385595,2795.113542385595,2802.1061738194394,2817.1603709746432
76,2821.2285810275903,2821.2285810275903,2828.2003706206224,2847.027742152166
77,2857.7331070057016,2857.7331070057016,2863.7759823431034,2879.8271463989804
78,2914.8590570105907,2914.8590570105907,2932.964247143509,2950.1734736750714
79,2935.442366764806,2935.442366764806,2950.1734736750714,2962.7962010987244
80,2965.587489583251,2965.587489583251,2977.7519868212103,2998.4061556385504
81,3012.8851862827178,3012.8851862827178,3055.561373057421,3067.9702548549294
82,3055.6964793102397,3055.6964793102397,3067.9702548549294,3076.6900926535104
83,3097.186050855201,3097.186050855201,3136.7883157511214,3150.6068486165705
84,3149.578188480313,3149.578188480313,3170.346862113259,3187.123371413209
85,3193.8325435940237,3193.8325435940237,3198.8890353382576,3218.860033682324
86,3226.244483092496,3226.244483092496,3228.1122680581234,3245.3165512119103
87,3239.577373661009,3239.577373661009,3262.390686130661,3276.437556470596
88,3280.079304504682,3280.079304504682,3288.5799699059753,3301.4085020691205
89,3304.952274123462,3304.952274123462,3305.046014211727,3323.7715614800045
90,3316.46461184796,3316.46461184796,3323.7715614800045,3341.5064819771305
91,3363.5469639190883,3363.5469639190883,3365.1133112296607,3376.7414104960735
92,3389.1686951085667,3389.1686951085667,3392.403593326174,3410.752088801034
93,3420.9769699281096,3420.9769699281096,3443.7118225342742,3461.2496259482705
94,3451.2248494849086,3451.2248494849086,3461.2496259482705,3472.904719289289
95,3464.3363994915894,3464.3363994915894,3474.3613000633795,3488.901491862831
96,3510.2326975457236,3510.2326975457236,3513.6598448460254,3528.422982893472
97,3523.958759254738,3523.958759254738,3529.6057565300757,3549.32638478901
98,3572.5052495651544,3572.5052495651544,3579.547503892821,3592.729026378946
99,3589.016255705126,3589.016255705126,3610.04175096583,3631.0019858688775
100,3614.9757388550825,3614.9757388550825,3631.0019858688775,3653.5126116976803
101,3659.576335460306,3659.576335460306,3668.432591390146,3683.7162991265072
102,3687.523806280007,3687.523806280007,3695.510086942835,3712.0006027937557
103,3720.9414031377023,3720.9414031377023,3724.2838757746413,3742.1419867406116
104,3777.795716599413,3777.795716599413,3789.448056442373,3810.966406869357
105,3809.6799978701847,3809.6799978701847,3812.285178733226,3825.9986448315717
106,3839.728245127171,3839.728245127171,3852.58725539221,3869.5390397383003
107,3883.094606873235,3883.094606873235,3883.733097510673,3903.6090874316683
108,3926.3009860950647,3926.3009860950647,3940.0392647698877,3959.406178908005
109,3963.840479622059,3963.840479622059,3971.183887898929,3981.0807438235624
110,3991.8301164755094,3991.8301164755094,4014.6879844391133,4029.764339334621
111,4018.65070051519,4018.65070051519,4040.4692822223346,4054.1205289018817
112,4054.2133068733833,4054.2133068733833,4060.5670462109238,4076.463321027848
113,4098.388543418171,4098.388543418171,4101.102944772968,4114.851323861052
114,4129.141113926842,4129.141113926842,4132.128550591189,4142.583322259509
115,4154.41370746701,4154.41370746701,4175.932201014741,4193.377326973153
116,4207.039028963908,4207.039028963908,4215.160279739479,4226.08346997001
117,4240.114133993361,4240.114133993361,4248.189489787007,4264.368187512769
118,4278.022554776045,4278.022554776045,4296.841939135203,4311.651559267301
119,4313.094281992268,4313.094281992268,4316.081954196776,4329.212540232201
120,4353.360698291369,4353.360698291369,4400.5517010156045,4413.618585002694
121,4365.980316631418,4400.5517010156045,4413.618585002694,4426.60745989967
122,4401.01414186725,4405.807388823949,4426.60745989967,4441.163211029895
123,4458.01110235162,4458.01110235162,4463.864483714333,4482.47248470778
124,4473.332475132741,4473.332475132741,4482.47248470778,4496.584893159099
125,4517.405230362655,4517.405230362655,4519.8894986655505,4535.827931612708
126,4528.683301633596,4528.683301633596,4540.624632598967,4551.901619694939
127,4546.800024213165,4546.800024213165,4557.339905827004,4573.914125819305
128,4593.2673425077655,4593.2673425077655,4594.659770145254,4614.106111190957
129,4630.945487977427,4630.945487977427,4639.863508739598,4655.36491217508
130,4664.814481282396,4664.814481282396,4677.287326904073,4693.6044947265955
131,4710.791614567483,4710.791614567483,4723.837982678094,4740.427188367083
132,4751.453221515183,4751.453221515183,4755.687221562093,4771.435032719082
133,4790.436242776154,4790.436242776154,4802.923275040662,4814.121409968214
134,4826.558126750493,4826.558126750493,4830.9930971047315,4849.673044296318
135,4885.315004836393,4885.315004836393,4911.03491528955,4925.393156591131
136,4916.5792900685,4916.5792900685,4930.848142496308,4949.269188554457
137,4953.146992340833,4953.146992340833,4958.261088747347,4973.809790814022
138,4994.652613187235,4994.652613187235,5026.522497111113,5040.685280001307
139,5013.819082162317,5026.522497111113,5048.658961096981,5063.1852913682305
140,5041.069697244447,5048.658961096981,5063.1852913682305,5073.300038410689
141,5084.696642302138,5084.696642302138,5093.475528277675,5105.600241053511
142,5107.050864242895,5107.050864242895,5107.1064309850335,5124.306126031684
143,5156.279959070048,5156.279959070048,5158.50361939908,5176.090570370192
144,5206.0140246038045,5206.0140246038045,5212.237942554669,5227.446765720469
145,5250.864699279295,5250.864699279295,5259.114414621377,5270.560527388171
146,5271.882381399761,5271.882381399761,5276.673681135869,5295.096396186544
147,5284.930280939926,5284.930280939926,5295.096396186544,5306.401990150596
148,5323.3663147478155,5323.3663147478155,5329.736123188574,5346.9193278732555
149,5350.489151136751,5350.489151136751,5354.806735468122,5370.254471704202
150,5377.955566507959,5377.955566507959,5382.49792827395,5396.057312051664
151,5410.830819347235,5410.830819347235,5414.1610722660225,5429.665580823393
152,5438.864864823117,5438.864864823117,5563.271522942129,5581.910571935881
153,5494.820697286618,5563.271522942129,5581.910571935881,5602.559377399149
154,5537.497282053876,5572.368829022446,5602.559377399149,5616.085733485368
155,5591.425717653076,5591.425717653076,5616.085733485368,5630.249717416581
156,5617.145859835996,5617.145859835996,5643.140075092824,5658.297657888766
157,5638.026936131128,5643.140075092824,5660.579146431473,5679.683565003457
158,5689.125189133002,5689.125189133002,5695.936499244794,5710.04498720843
159,5704.37934751847,5704.37934751847,5711.537973734296,5725.135907346985
160,5718.468620066996,5718.468620066996,5725.135907346985,5741.344368465953
161,5753.809930274167,5753.809930274167,5807.591179268976,5829.302789897347
162,5777.448406345936,5807.591179268976,5839.347207818711,5851.771522723354
163,5818.271773282362,5839.347207818711,5856.038251211689,5865.530040064547
164,5860.023493706766,5860.023493706766,5871.814741217092,5888.050107694188
165,5897.158824285666,5897.158824285666,5907.286521404804,5922.485958788229
166,5910.510518205105,5910.510518205105,5922.485958788229,5937.243218057845
167,5944.010421453695,5944.010421453695,5958.219574292551,5979.969475913076
168,5998.629366280394,5998.629366280394,6012.28309148933,6023.331012365429
169,6029.598474041633,6029.598474041633,6030.878510688603,6051.349547577451
170,6060.533569459839,6060.533569459839,6066.428580869312,6085.292643083692
171,6073.3965180532605,6073.3965180532605,6085.292643083692,6104.583309004621
172,6103.331853071765,6103.331853071765,6112.247878291847,6126.700231949199
173,6123.358444914233,6123.358444914233,6126.700231949199,6139.284783217043
174,6171.859353678046,6171.859353678046,6191.756411332988,6208.693872267661
175,6183.632673957328,6191.756411332988,6208.693872267661,6227.210669477636
176,6222.04059155588,6222.04059155588,6227.624820185804,6238.510526602885
177,6263.201814678973,6263.201814678973,6266.275289582068,6279.304311214321
178,6277.310012462798,6277.310012462798,6283.505521473436,6295.4788940921535
179,6326.9984508466705,6326.9984508466705,6329.379575876534,6347.586017321917
180,6380.571456322794,6380.571456322794,6431.580691655431,6441.933378652199
181,6402.601337502863,6431.580691655431,6441.933378652199,6455.646358893044
182,6444.776687153483,6444.776687153483,6459.791507258487,6476.046563651794
183,6468.882281928871,6468.882281928871,6481.764642767576,6494.852638071181
184,6498.8913531291055,6498.8913531291055,6508.071176416884,6527.9561692509305
185,6552.16720926143,6552.16720926143,6553.159779700504,6569.467249574191
186,6573.851058945514,6573.851058945514,6584.1792333658705,6601.004639856818
187,6619.771520246705,6619.771520246705,6643.533431296581,6658.399897549045
188,6649.859493706036,6649.859493706036,6658.399897549045,6674.666598432816
189,6691.928654820866,6691.928654820866,6693.137668223468,6708.03428134923
190,6730.478160078555,6730.478160078555,6732.674701541361,6752.005689616064
191,6764.38143271164,6764.38143271164,6780.673460046,6792.121763053129
192,6797.426147280746,6797.426147280746,6848.449544519504,6864.384735110721
193,6844.5586595086415,6848.449544519504,6864.384735110721,6881.739344234848
194,6893.984529936247,6893.984529936247,6898.768153615217,6912.982289030857
195,6947.629331417135,6947.629331417135,6957.641523114907,6973.746561317436
196,6982.447995845567,6982.447995845567,6995.730323793691,7009.469102421287
197,7011.043206411902,7011.043206411902,7049.961918817343,7064.314876411484
198,7050.090820627097,7050.090820627097,7084.762053051581,7096.008108318199
199,7084.253396701706,7084.762053051581,7096.008108318199,7109.724038569672
200,7137.684382938753,7137.684382938753,7140.682849223573,7150.687561654356
201,7194.678788783573,7194.678788783573,7212.252424905849,7232.065523855457
202,7229.594498175694,7229.594498175694,7232.065523855457,7241.088037713814
203,7287.59948853511,7287.59948853511,7294.710479218858,7308.325420288466
204,7305.279000717186,7305.279000717186,7312.852262583597,7324.331557046539
205,7353.536900291064,7353.536900291064,7365.622959435533,7382.568573712572
206,7382.544867992176,7382.544867992176,7404.399859816153,7423.094118593551
207,7441.485675133072,7441.485675133072,7447.681955045499,7457.790405526536
208,7461.790592286477,7461.790592286477,7471.004390048734,7486.17305376841
209,7489.16954848157,7489.16954848157,7524.292224848628,7540.021825215039
210,7513.207691006068,7524.292224848628,7540.021825215039,7559.2147759154695
211,7569.480763713909,7569.480763713909,7585.067371057867,7605.30296800982
212,7605.315343597511,7605.315343597511,7610.987799921768,7624.592983123627
213,7634.903522065207,7634.903522065207,7647.1096761427,7663.729457138925
214,7688.0675647836015,7688.0675647836015,7695.548225282116,7713.946508168735
215,7725.056351948892,7725.056351948892,7731.559790083268,7746.36377677324
216,7760.06408994239,7760.06408994239,7781.001144882611,7798.860452046722
217,7789.77436600347,7789.77436600347,7798.860452046722,7815.257792996006
218,7825.819884023406,7825.819884023406,7835.4202878704245,7848.577270192314
219,7844.153909146291,7844.153909146291,7848.577270192314,7862.45647985664
220,7874.423391944169,7874.423391944169,7884.997195818,7900.039747266089
221,7903.000614307255,7903.000614307255,7913.360273364632,7927.391656424767
222,7953.5601649185,7953.5601649185,7954.19445739846,7975.188234041877
223,8002.41120102743,8002.41120102743,8006.759494792505,8022.0124958007145
224,8031.329404063144,8031.329404063144,8044.427011333383,8063.037143018545
225,8066.105112220404,8066.105112220404,8069.072051066078,8091.326475678403
226,8102.507639272264,8102.507639272264,8122.834648740171,8138.31607088886
227,8116.6150334303275,8122.834648740171,8138.31607088886,8157.210840572937
228,8129.422766729898,8135.087497361503,8157.210840572937,8173.241454782068
229,8171.183666953806,8171.183666953806,8176.80083342412,8190.55517212521
230,8201.020813499465,8201.020813499465,8210.4248098783,8227.224109240382
231,8257.847541834884,8257.847541834884,8265.973731946939,8281.691200399862
232,8282.09786922326,8282.09786922326,8283.29312712174,8302.743469295556
233,8313.876329112187,8313.876329112187,8320.120240831842,8332.316359237815
234,8325.114908999069,8325.114908999069,8332.316359237815,8348.901943374953
235,8355.22761237173,8355.22761237173,8373.262161335988,8388.953210612359
236,8367.662419356719,8373.262161335988,8388.953210612359,8411.20510435196
237,8391.858583681122,8391.858583681122,8411.20510435196,8423.526679838846
238,8430.283450679786,8430.283450679786,8440.788398997347,8451.541547001436
239,8480.671040615289,8480.671040615289,8486.214104534765,8501.934169667209
240,8521.907018156277,8521.907018156277,8528.181937330713,8540.008357569268
241,8535.083212912336,8535.083212912336,8555.957911895592,8574.485682780563
242,8546.460743166386,8555.957911895592,8574.485682780563,8591.883130929202
243,8568.650348456295,8568.650348456295,8591.883130929202,8608.93331463045
244,8610.043680386938,8610.043680386938,8618.840953933255,8636.782865772397
245,8665.532718301074,8665.532718301074,8674.111386633696,8691.432439597484
246,8690.746128086903,8690.746128086903,8699.908618821271,8715.939689677114
247,8702.721528217186,8702.721528217186,8715.939689677114,8731.275903459353
248,8734.020011306844,8734.020011306844,8734.266895624185,8750.6091380079
249,8755.104538958994,8755.104538958994,8756.44324765475,8773.846133431627
250,8784.263269438115,8784.263269438115,8798.501473354429,8816.66870776607
251,8802.47911726592,8802.47911726592,8827.057135767765,8843.722756637486
252,8856.405404060239,8856.405404060239,8860.246197099643,8878.39264143394
253,8889.499169334447,8889.499169334447,8900.741924329746,8914.984238651667
254,8925.27166379665,8925.27166379665,8937.695095323697,8960.571871462867
255,8936.382498570094,8937.695095323697,8960.571871462867,8975.468227645879
256,8958.686131238981,8958.686131238981,8975.468227645879,8987.580332822326
257,8970.708142763659,8970.708142763659,8987.580332822326,9007.121240952129
