# file created by code in harbour_fns_1896438.jl
# file created on 2026-03-09 at 15:39:44
# parameter: seed = 1896593
# parameter: T = 30000.0
# parameter: lower_interarrival = 11.0
# parameter: upper_interarrival = 59.0
# parameter: mean_process_times = [11.0, 16.0]
# parameter: max_queue = [9223372036854775807, 4]
# parameter: time_units = hours
id,arrival_time,start_service_times,start_service_times,completion_time
1,0.0,0.0,2.329569094428283,13.600929111228234
2,38.34895676374269,38.34895676374269,53.956151736544264,71.58497562007548
3,96.13306911875138,96.13306911875138,149.08347167947247,161.6132077284705
4,121.63392751869567,149.08347167947247,161.963278117243,178.69906041575734
5,157.47682071374345,161.963278117243,178.69906041575734,188.58778951564335
6,205.64500684106102,205.64500684106102,208.4710249072966,225.8686309073343
7,264.4008468621279,264.4008468621279,288.93396656668847,310.85983890774537
8,321.37668301697056,321.37668301697056,325.6047720990403,344.34501367934865
9,339.29392399352344,339.29392399352344,344.34501367934865,359.25487526080724
10,353.60775457371824,353.60775457371824,372.99693380617236,395.866127326291
11,381.9146391533426,381.9146391533426,424.3563644972796,438.33253887928737
12,439.836895031318,439.836895031318,467.148823580065,482.35870307647843
13,471.12140357394463,471.12140357394463,482.35870307647843,496.3051779963723
14,511.07967209528954,511.07967209528954,524.651500434765,539.9130714973346
15,526.0503139591754,526.0503139591754,539.9130714973346,554.1153648277312
16,560.7336135806164,560.7336135806164,569.1241986076487,583.1269718214178
17,597.0411282784303,597.0411282784303,606.6816693546984,626.1361821104083
18,643.6058704989019,643.6058704989019,670.0499339494312,675.3436064225492
19,660.4648983863895,670.0499339494312,680.264387977923,695.658119469119
20,681.4720002487107,681.4720002487107,697.0489954621909,711.9053384234251
21,733.9102548659694,733.9102548659694,737.6246940412124,753.7740916803273
22,770.5584100364919,770.5584100364919,772.4625707167312,787.5543312030386
23,791.6886338209138,791.6886338209138,802.2017530376028,816.3224286660644
24,826.2906735043375,826.2906735043375,847.6350946279072,858.8484411754196
25,884.416645444574,884.416645444574,886.1270498666548,899.9151059144054
26,939.5184290530993,939.5184290530993,941.5818562437754,958.2016953706313
27,993.4669853907209,993.4669853907209,996.9527800529771,1012.0478500407405
28,1047.2272370923745,1047.2272370923745,1053.9422110004305,1065.1844323073456
29,1080.9772134918287,1080.9772134918287,1084.4296722535032,1104.37762796381
30,1131.714668956448,1131.714668956448,1140.5830812317972,1157.761571202172
31,1179.448738673803,1179.448738673803,1186.1387324371556,1203.7178132503575
32,1196.3888547137108,1196.3888547137108,1223.0642017784514,1248.0796812396325
33,1239.6758833929598,1239.6758833929598,1248.0796812396325,1267.7688534236615
34,1268.13973805426,1268.13973805426,1271.085433122739,1288.7565666686785
35,1285.7567532879675,1285.7567532879675,1291.0661215506746,1309.6600402629233
36,1304.802355846012,1304.802355846012,1309.6600402629233,1326.9176082494644
37,1328.0980128428687,1328.0980128428687,1348.4133079614355,1360.8133630448428
38,1347.1799055841047,1348.4133079614355,1360.8133630448428,1376.3620489289378
39,1379.401668105952,1379.401668105952,1384.1635542264871,1400.9978793472583
40,1429.0137110835972,1429.0137110835972,1432.5730701704197,1448.4282349846453
41,1475.114699623377,1475.114699623377,1481.5291294664148,1497.2802402662905
42,1503.852448738737,1503.852448738737,1513.2088715802079,1531.4057623956999
43,1561.81673048216,1561.81673048216,1569.7325088628756,1586.2223333553063
44,1572.8502349567511,1572.8502349567511,1586.2223333553063,1604.1221351059987
45,1588.5035015496085,1588.5035015496085,1623.435477877172,1637.9610038839699
46,1616.4631696031713,1623.435477877172,1637.9610038839699,1662.587620470982
47,1653.1362194702133,1653.1362194702133,1683.9914711322097,1695.4395431427574
48,1703.4446785173516,1703.4446785173516,1705.104460104091,1717.431827212967
49,1753.801718375976,1753.801718375976,1786.008752329262,1799.1917514573263
50,1779.5268165536304,1786.008752329262,1799.1917514573263,1818.5204319746213
51,1797.5025082744519,1797.5025082744519,1818.5204319746213,1842.8340719677121
52,1812.7608189763992,1815.7125440316515,1842.8340719677121,1860.2738381249287
53,1838.8396515640004,1838.8396515640004,1860.2738381249287,1874.5311363950063
54,1872.390648439718,1872.390648439718,1875.0704380811253,1889.133606141756
55,1913.704708210479,1913.704708210479,1917.0822233739839,1927.1226222544685
56,1956.7102676170293,1956.7102676170293,1961.4675502877772,1974.056201030797
57,2001.6114212258879,2001.6114212258879,2003.6703151118172,2016.8608495362403
58,2013.0272870789506,2013.0272870789506,2019.5602813551077,2037.7577285386003
59,2036.3604639659654,2036.3604639659654,2040.9400433102364,2056.1582564743007
60,2054.3061004287674,2054.3061004287674,2113.18977029756,2126.6662196107864
61,2109.7426656324487,2113.18977029756,2126.6662196107864,2143.0040506332866
62,2139.8208890360725,2139.8208890360725,2201.2451327269555,2217.4633376161587
63,2193.996575363473,2201.2451327269555,2217.4633376161587,2231.0879310313308
64,2238.7472665898063,2238.7472665898063,2245.806707767101,2263.9828280685306
65,2288.2006093720634,2288.2006093720634,2288.9667277163185,2300.48516973236
66,2320.717320414114,2320.717320414114,2328.8866308090096,2346.330972475351
67,2359.1327292025157,2359.1327292025157,2363.132432242478,2376.0292256518915
68,2385.020760880812,2385.020760880812,2388.065478471959,2402.6768029128893
69,2424.9068113839303,2424.9068113839303,2431.375897470863,2446.7492315539926
70,2483.8863699846875,2483.8863699846875,2517.6428416664953,2539.318075484937
71,2523.854309672488,2523.854309672488,2539.318075484937,2554.1760778266075
72,2578.1681455702987,2578.1681455702987,2578.1951643063726,2596.775707352351
73,2597.831493025612,2597.831493025612,2600.5120134153417,2610.939299926372
74,2621.973984613814,2621.973984613814,2663.653746748809,2676.213924499077
75,2674.3141426590278,2674.3141426590278,2676.213924499077,2694.007552789999
76,2720.0324842573054,2720.0324842573054,2727.8421534525423,2744.387001488115
77,2766.422098474195,2766.422098474195,2767.3974865989335,2783.876927760137
78,2820.2516774015558,2820.2516774015558,2862.4742177783814,2879.9716949212443
79,2855.640304421982,2862.4742177783814,2880.7596077576814,2891.449222265749
80,2876.8486400287925,2880.7596077576814,2891.449222265749,2906.231445627958
81,2913.638750437231,2913.638750437231,2917.7721831467743,2933.768309895878
82,2950.035080624234,2950.035080624234,2950.591605062458,2968.907929846672
83,2996.9432675452617,2996.9432675452617,3006.8038654956604,3021.054428145861
84,3020.102499504865,3020.102499504865,3033.397547900099,3044.815774717406
85,3065.286564129301,3065.286564129301,3070.6233915757684,3090.1682943862716
86,3091.12256082915,3091.12256082915,3095.8816539125814,3112.0412184392358
87,3107.474522277837,3107.474522277837,3154.197539523948,3173.4356455909788
88,3126.030194201108,3154.197539523948,3173.4356455909788,3189.17027429674
89,3151.947474936514,3166.8812932044425,3189.17027429674,3202.4275155224423
90,3187.8804699911493,3187.8804699911493,3208.8386485011397,3223.07040012643
91,3202.123032495045,3208.8386485011397,3223.07040012643,3233.273631442125
92,3220.9533657393354,3220.9533657393354,3233.273631442125,3249.3714301822074
93,3255.1082680559425,3255.1082680559425,3257.1087784769015,3277.9075034189495
94,3313.5040466156142,3313.5040466156142,3336.2528566480833,3351.7892940459333
95,3346.182236828464,3346.182236828464,3351.7892940459333,3373.796302234391
96,3385.9956801746175,3385.9956801746175,3407.855857188316,3419.9088119628263
97,3441.233110242164,3441.233110242164,3442.4104093507635,3461.535313145874
98,3461.3213689334807,3461.3213689334807,3504.241863684465,3527.5561410101727
99,3504.4219099440193,3504.4219099440193,3527.5561410101727,3544.6243912299915
100,3521.70098388106,3521.70098388106,3544.6243912299915,3562.1959307295097
101,3532.7777122104885,3532.7777122104885,3562.1959307295097,3579.762112707287
102,3590.8591870506652,3590.8591870506652,3595.2401885685504,3612.69795091234
103,3642.4451222427874,3642.4451222427874,3644.878663418514,3659.4537326509317
104,3676.942112793278,3676.942112793278,3682.1541658402202,3702.76132542631
105,3722.955367498119,3722.955367498119,3743.39999317306,3767.5869974707666
106,3746.8249228043123,3746.8249228043123,3767.5869974707666,3785.0567330053127
107,3796.1224797285986,3796.1224797285986,3808.1641885749996,3825.3336285712126
108,3840.8073134856663,3840.8073134856663,3840.9582909962237,3852.048419146444
109,3888.3737392216813,3888.3737392216813,3888.5419329612946,3901.083217316286
110,3909.5784144470176,3909.5784144470176,3920.335001199616,3937.1022481812083
111,3963.3576427196485,3963.3576427196485,3965.0567296736053,3982.190251244805
112,4011.6393656576493,4011.6393656576493,4016.1869948308986,4027.1766060541936
113,4047.884824030368,4047.884824030368,4051.514178051999,4072.285300620128
114,4081.826217756962,4081.826217756962,4089.866199086115,4108.653432471303
115,4099.599015685589,4099.599015685589,4114.647374987993,4128.387297521533
116,4144.788101494728,4144.788101494728,4145.236192724292,4160.184552766814
117,4200.990479324312,4200.990479324312,4222.34855122103,4238.714808569737
118,4216.478220976111,4222.34855122103,4238.714808569737,4261.997578594073
119,4244.853670600082,4244.853670600082,4261.997578594073,4281.464396104038
120,4292.606551279071,4292.606551279071,4308.321417690867,4324.087739859621
121,4314.280531024073,4314.280531024073,4331.966152127485,4351.98973666943
122,4343.904609373886,4343.904609373886,4351.98973666943,4369.659959352113
123,4367.234076871814,4367.234076871814,4369.659959352113,4383.8882306879495
124,4384.956433462226,4384.956433462226,4390.587307088216,4408.040400751008
125,4422.379055649266,4422.379055649266,4438.875152310826,4452.3945291944565
126,4445.635913759152,4445.635913759152,4452.3945291944565,4464.027189787422
127,4492.753668226451,4492.753668226451,4500.393676281185,4512.526882511996
128,4524.048543245843,4524.048543245843,4532.03004880353,4546.287444555938
129,4570.0039428088685,4570.0039428088685,4589.503747028987,4609.3850835403655
130,4624.567606992185,4624.567606992185,4626.9245182160885,4642.316288163787
131,4659.688677890075,4659.688677890075,4665.281671215773,4682.691330854236
132,4673.116060108826,4673.116060108826,4689.028569660655,4705.869253663932
133,4728.736015984222,4728.736015984222,4747.394001014481,4765.557243270747
134,4785.558930910416,4785.558930910416,4791.244491709349,4805.835750043431
135,4802.463224653017,4802.463224653017,4805.835750043431,4821.868106516051
136,4837.763778678143,4837.763778678143,4849.96647393188,4862.507224033765
137,4866.457051416473,4866.457051416473,4868.863665582793,4885.203693023617
138,4878.710360114716,4878.710360114716,4896.568160790319,4917.072367252687
139,4928.399489834189,4928.399489834189,4947.00262086821,4965.601972656427
140,4971.444453578208,4971.444453578208,4998.22869561615,5012.764215763558
141,4993.301989941839,4998.22869561615,5012.764215763558,5027.550603967154
142,5028.157902685645,5028.157902685645,5037.857424005446,5051.60790745504
143,5063.739694723015,5063.739694723015,5073.006741320933,5087.700375614556
144,5121.233986234713,5121.233986234713,5123.7451524835005,5132.977857098507
145,5133.797862910319,5133.797862910319,5155.9391236925885,5174.03770554895
146,5160.273389234911,5160.273389234911,5174.03770554895,5187.3513064982635
147,5178.867926127656,5178.867926127656,5189.684327253588,5203.838091179379
148,5237.678687241843,5237.678687241843,5242.878827762703,5250.7339767831345
149,5292.378152172593,5292.378152172593,5299.770882942499,5313.230439781697
150,5332.850169074949,5332.850169074949,5360.300201234884,5380.002009397449
151,5364.9868888581805,5364.9868888581805,5382.857606921999,5397.765595904278
152,5399.121416762202,5399.121416762202,5405.440522405081,5421.963351720468
153,5450.1488185248145,5450.1488185248145,5454.4146556665655,5465.051115664436
154,5505.457073881633,5505.457073881633,5505.471890293467,5521.051717550698
155,5542.282137666292,5542.282137666292,5581.24826052094,5592.559078939021
156,5577.836333605722,5581.24826052094,5592.559078939021,5611.002073582527
157,5630.421320793949,5630.421320793949,5640.154080286824,5656.622740663256
158,5663.40427282386,5663.40427282386,5667.269738072035,5677.335926782182
159,5720.467744767795,5720.467744767795,5745.724694483519,5761.204574258838
160,5755.714640448315,5755.714640448315,5762.332430186596,5776.85681159366
161,5783.5323903773715,5783.5323903773715,5785.515655548913,5804.344235726552
162,5813.085004180678,5813.085004180678,5836.57837501869,5850.94110734176
163,5869.099049996402,5869.099049996402,5871.80538739684,5893.421378637679
164,5926.955001844699,5926.955001844699,5928.108934247115,5946.75375680098
165,5961.206090176964,5961.206090176964,5961.64530170025,5974.082241826168
166,5977.713754753584,5977.713754753584,5986.481307378808,6005.249337541499
167,6018.358152583648,6018.358152583648,6020.73232216893,6037.617178793516
168,6076.307951272273,6076.307951272273,6089.254932115061,6105.708322453444
169,6134.684230928357,6134.684230928357,6136.944853586029,6153.42050552294
170,6185.045488242639,6185.045488242639,6189.416434630346,6202.959603091497
171,6211.42392280247,6211.42392280247,6236.257905684592,6251.212358482473
172,6255.22054868214,6255.22054868214,6257.605296278926,6277.782794860184
173,6305.39650033863,6305.39650033863,6310.3933255080065,6321.735549144983
174,6332.916659551814,6332.916659551814,6364.129268874495,6379.699280610843
175,6391.565169656327,6391.565169656327,6431.485624662006,6444.599264185982
176,6424.338239559061,6431.485624662006,6444.599264185982,6462.990141179264
177,6464.908197684206,6464.908197684206,6485.176029591458,6504.360122027697
178,6501.851470789081,6501.851470789081,6512.675373225143,6527.900640935294
179,6539.476389222644,6539.476389222644,6540.158509190016,6553.885053106986
180,6581.273485282383,6581.273485282383,6583.2734465796875,6602.503957917254
181,6636.881334492457,6636.881334492457,6643.5768955254625,6661.142629950704
182,6692.851240886264,6692.851240886264,6721.510889464567,6738.601542339752
183,6735.790239650505,6735.790239650505,6763.050225651273,6783.823407264191
184,6761.772705331731,6763.050225651273,6783.823407264191,6801.077160976019
185,6797.654182323124,6797.654182323124,6802.422462318112,6820.406175979106
186,6851.059239551834,6851.059239551834,6858.726701531069,6870.812347333468
187,6880.622483816491,6880.622483816491,6892.635975251535,6905.861639654345
188,6932.371186398569,6932.371186398569,6968.597231943302,6985.8181133264625
189,6944.591454402862,6968.597231943302,6985.8181133264625,7002.425474810836
190,6998.665317455203,6998.665317455203,7002.425474810836,7016.350149877327
191,7053.943799173355,7053.943799173355,7058.995267664647,7076.92562806739
192,7105.7855958950895,7105.7855958950895,7143.875955599904,7161.562684444815
193,7154.831540874944,7154.831540874944,7163.192032876041,7178.08665559891
194,7181.112485591255,7181.112485591255,7187.522964129444,7204.2646221235045
195,7222.51310923265,7222.51310923265,7227.009199185405,7244.253431082423
196,7265.837604855102,7265.837604855102,7270.953295044407,7288.236222444803
197,7294.414433866209,7294.414433866209,7305.459598865306,7321.188718178768
198,7333.735877947757,7333.735877947757,7337.123047030918,7354.924579927907
199,7389.190075584177,7389.190075584177,7393.377613847062,7402.121476930948
200,7425.670886287688,7425.670886287688,7434.613691542712,7455.805186945778
201,7455.252087875462,7455.252087875462,7458.463521739271,7474.567926603228
202,7480.138185301349,7480.138185301349,7526.185260701659,7540.497380150549
203,7506.018979822047,7526.185260701659,7602.51571622843,7619.736499837431
204,7543.829663804101,7602.51571622843,7619.736499837431,7633.504475003825
205,7593.255563910625,7608.33247687394,7633.504475003825,7645.788891790861
206,7641.407944889364,7641.407944889364,7645.95253260966,7661.010670892095
207,7685.644117983136,7685.644117983136,7696.22289329166,7713.793311783243
208,7699.860305400816,7699.860305400816,7715.437815686278,7733.44214429228
209,7751.586688109712,7751.586688109712,7752.655150611603,7764.379891912776
210,7781.625398511611,7781.625398511611,7799.451810748016,7810.175770656852
211,7800.285901593298,7800.285901593298,7832.5072287053345,7849.5199316480775
212,7821.810149690721,7832.5072287053345,7849.5199316480775,7866.155499465518
213,7853.605853470811,7853.605853470811,7873.166222481192,7889.090774702467
214,7908.470798634805,7908.470798634805,7911.7557278125905,7923.793640844208
215,7941.889516596468,7941.889516596468,7943.466119160637,7964.151135861513
216,7984.027202700636,7984.027202700636,7993.3081645747725,8005.791895698005
217,8033.30307263048,8033.30307263048,8053.928192124773,8068.583865516766
218,8079.6458826621,8079.6458826621,8089.589154752012,8104.274685763254
219,8091.001220436034,8091.001220436034,8104.274685763254,8119.487328683562
220,8110.891326342325,8110.891326342325,8120.203036961161,8139.374182900398
221,8130.963503354194,8130.963503354194,8142.813726357421,8154.627435710164
222,8167.580656530513,8167.580656530513,8181.285266460038,8197.090260888112
223,8225.068931706059,8225.068931706059,8230.986620287717,8247.125412562606
224,8254.635433411102,8254.635433411102,8264.005126749276,8279.076089127351
225,8277.672402265682,8277.672402265682,8280.009594471381,8297.318980827382
226,8313.062635058997,8313.062635058997,8327.273247138588,8344.003775107447
227,8353.149732303646,8353.149732303646,8354.18206477635,8366.185454233007
228,8385.691339884981,8385.691339884981,8426.652630271463,8442.120353566213
229,8414.639303485448,8426.652630271463,8447.125272486579,8466.764616501912
230,8460.336044854133,8460.336044854133,8469.947486136674,8489.619956950113
231,8511.812722113795,8511.812722113795,8517.496766790715,8533.084012042007
232,8557.029124023013,8557.029124023013,8558.965766472511,8571.57814659312
233,8575.16999350596,8575.16999350596,8585.783783193121,8597.331819652956
234,8624.45137860241,8624.45137860241,8638.685030322918,8653.606061851902
235,8682.06093137302,8682.06093137302,8683.274609051132,8703.816640117302
236,8724.39688316555,8724.39688316555,8725.990416131468,8746.993742717345
237,8754.070975617558,8754.070975617558,8756.15282590855,8775.711473558502
238,8805.109253104014,8805.109253104014,8809.203234083441,8822.002711641706
239,8845.49580509708,8845.49580509708,8859.777774951024,8876.121197674338
240,8887.574896752476,8887.574896752476,8891.093004627388,8905.855416880493
241,8918.636483251847,8918.636483251847,8929.951170465525,8943.426142340833
242,8941.97866338815,8941.97866338815,8958.851130526778,8974.46470641621
243,8963.202225985378,8963.202225985378,8987.58386102083,9001.21046799398
244,9008.683175678483,9008.683175678483,9029.007623058855,9043.082796835815
245,9027.52794797884,9029.007623058855,9043.082796835815,9059.14632933795
246,9051.694722826784,9051.694722826784,9060.500324249613,9079.182996796237
247,9091.270466873173,9091.270466873173,9110.741849130003,9132.940639090575
248,9124.22084783604,9124.22084783604,9132.940639090575,9148.679669701527
249,9167.481071966873,9167.481071966873,9200.94671449646,9218.28331872563
250,9184.07900063601,9200.94671449646,9230.917945126579,9245.951397697134
251,9204.244106410837,9230.917945126579,9245.951397697134,9262.552369107394
252,9215.922247769098,9243.02613407975,9262.552369107394,9280.315636334177
253,9227.174051315811,9244.707182554344,9280.315636334177,9294.102111048249
254,9247.425067311917,9247.425067311917,9294.102111048249,9307.73002361115
255,9263.423636246287,9263.423636246287,9307.73002361115,9319.334222918924
256,9279.579184411192,9298.766044530992,9319.334222918924,9337.943155426965
257,9310.404105737929,9310.404105737929,9355.920465824827,9368.974482860664
