# file created by code in harbour_fns_1896438.jl
# file created on 2026-03-09 at 15:39:40
# parameter: seed = 1896529
# parameter: T = 30000.0
# parameter: lower_interarrival = 11.0
# parameter: upper_interarrival = 59.0
# parameter: mean_process_times = [11.0, 16.0]
# parameter: max_queue = [9223372036854775807, 4]
# parameter: time_units = hours
id,arrival_time,start_service_times,start_service_times,completion_time
1,0.0,0.0,10.723181143820568,23.107813476465438
2,39.87032951270926,39.87032951270926,57.51977238991004,74.01330003380474
3,53.99980623641861,57.51977238991004,74.01330003380474,87.96161633371005
4,84.15262791375973,84.15262791375973,88.50953990389888,100.10601594626945
5,141.09837130775486,141.09837130775486,141.53839223647157,156.96635882803847
6,187.07270154627668,187.07270154627668,189.5473349351745,201.09532149317005
7,216.03307183902822,216.03307183902822,218.99720862411402,232.53220943484337
8,238.68827975292294,238.68827975292294,245.04861111309395,262.70736435496383
9,268.3776412072048,268.3776412072048,294.2184799102779,308.43876343145865
10,308.13151026683863,308.13151026683863,310.0823999264964,326.90435382143176
11,341.0025863152164,341.0025863152164,350.1516242119195,365.62364572729825
12,376.41063311067603,376.41063311067603,397.1291311493178,413.7174068621589
13,397.209685043679,397.209685043679,413.7174068621589,432.310938259041
14,418.54451803962456,418.54451803962456,432.310938259041,446.3590846876839
15,452.0582085196642,452.0582085196642,465.60978155209335,482.750703977899
16,510.3293305927147,510.3293305927147,516.8941651164308,530.1426271272909
17,551.395116554569,551.395116554569,558.8535186207849,572.9876956536559
18,586.1939948669581,586.1939948669581,592.6503231670283,606.2655458383382
19,642.6749331341182,642.6749331341182,646.1235791959745,664.6854880821129
20,694.1409646260248,694.1409646260248,695.2696625217419,709.2576693147954
21,715.7550222016525,715.7550222016525,736.4017950841866,753.0424498080595
22,742.8510864174909,742.8510864174909,753.0424498080595,773.4524199590161
23,757.0384311041141,757.0384311041141,773.4524199590161,791.2149606110349
24,787.9299214380867,787.9299214380867,791.2149606110349,803.6602195432032
25,835.6212062266384,835.6212062266384,836.7660939463993,853.8790862007063
26,851.609022922738,851.609022922738,881.2891645214113,896.9726801478974
27,879.5317060019947,881.2891645214113,897.1717206215611,914.962013370993
28,896.938286420841,897.1717206215611,914.962013370993,932.3703599935141
29,923.1852359468564,923.1852359468564,944.6125459269665,963.9462494765012
30,974.2403893152702,974.2403893152702,978.6325533927229,998.0015303165541
31,1017.3830533441035,1017.3830533441035,1019.7304779743989,1041.2993382007824
32,1067.0284405911086,1067.0284405911086,1069.3972030176967,1083.7803294291796
33,1087.358094517436,1087.358094517436,1114.9237271011134,1132.4229847926729
34,1107.9380758979246,1114.9237271011134,1132.4229847926729,1149.2427772698063
35,1150.5546498198933,1150.5546498198933,1162.568954248942,1180.919833216655
36,1207.0270924850838,1207.0270924850838,1217.270421327062,1238.3285270052652
37,1228.4525725073252,1228.4525725073252,1238.3285270052652,1259.616093798394
38,1257.0932333366898,1257.0932333366898,1260.1754241307153,1272.5181021236383
39,1314.222596430417,1314.222596430417,1326.7126023285089,1342.4346626732208
40,1351.386216338162,1351.386216338162,1354.008455270834,1373.1314098654996
41,1372.6086912130024,1372.6086912130024,1373.662313309375,1387.4050130703283
42,1415.7075949303646,1415.7075949303646,1427.3766808233015,1443.6643786018085
43,1465.7925605591677,1465.7925605591677,1470.2201363844713,1488.3196316431986
44,1476.9626633024163,1476.9626633024163,1488.7517928323966,1500.0887969169733
45,1530.0048726306643,1530.0048726306643,1542.3284512785679,1559.0916968830236
46,1569.6828494495326,1569.6828494495326,1586.0402788850142,1602.5173906477119
47,1597.4617869101992,1597.4617869101992,1602.5173906477119,1620.3961333296397
48,1655.264385447323,1655.264385447323,1659.1701822875204,1679.2007235846495
49,1693.7410395785805,1693.7410395785805,1702.9568759627539,1715.5940982839804
50,1716.2013198818947,1716.2013198818947,1718.6353521438275,1735.3569779142051
51,1752.686449861729,1752.686449861729,1753.0840980720693,1769.4160796992408
52,1796.827689050805,1796.827689050805,1803.4435862062987,1816.6558767168312
53,1809.7784111371172,1809.7784111371172,1825.5673420168887,1841.1497451485498
54,1825.8432731607295,1825.8432731607295,1841.1497451485498,1857.7163399924787
55,1853.4761804269858,1853.4761804269858,1864.8626124758682,1880.1192797049032
56,1900.9455016628272,1900.9455016628272,1913.3060571900915,1927.9282071860985
57,1949.9623750034727,1949.9623750034727,1955.1967553141023,1975.4068314428155
58,2002.66684919275,2002.66684919275,2010.6024759965758,2029.2535819209152
59,2055.892138062912,2055.892138062912,2085.2864010394837,2101.2925394671192
60,2090.2365386997276,2090.2365386997276,2108.3054665598283,2127.102289812411
61,2140.828253789209,2140.828253789209,2153.4045471000827,2164.989565824478
62,2155.54158289212,2155.54158289212,2164.989565824478,2180.931602935044
63,2192.6075845687164,2192.6075845687164,2196.856324003845,2211.527833562388
64,2228.110605886445,2228.110605886445,2237.0982127311822,2252.960508103406
65,2267.04415025147,2267.04415025147,2273.3124865579393,2289.2079170796947
66,2298.4918923861505,2298.4918923861505,2300.6871014324,2314.0525748921727
67,2327.2539354430364,2327.2539354430364,2362.185903166798,2378.6429874247106
68,2380.2049022706715,2380.2049022706715,2396.226794394763,2415.388038409637
69,2409.900859023184,2409.900859023184,2415.388038409637,2427.1974809638386
70,2443.189927796279,2443.189927796279,2457.8482451576915,2473.113122206099
71,2501.9650500206326,2501.9650500206326,2507.1131007779063,2521.7237977293994
72,2552.316734144477,2552.316734144477,2572.2929965159706,2592.165206470852
73,2606.730548596459,2606.730548596459,2610.6598223723154,2623.7584071378255
74,2632.6477679035343,2632.6477679035343,2648.3906520000523,2663.5787642578453
75,2686.584671916164,2686.584671916164,2688.475135513567,2700.262113289587
76,2738.2469706427755,2738.2469706427755,2741.230181987842,2758.991000844531
77,2769.7208842844802,2769.7208842844802,2781.7431994532967,2800.8746114265145
78,2785.942359281081,2785.942359281081,2800.8746114265145,2814.655490867685
79,2806.941567664014,2806.941567664014,2814.655490867685,2832.3109478823544
80,2835.4820227999517,2835.4820227999517,2860.985753221225,2879.2855842992
81,2882.346256208212,2882.346256208212,2883.207062354134,2899.9061863522843
82,2903.2713182230395,2903.2713182230395,2903.297252326678,2921.776298687226
83,2952.5947963260605,2952.5947963260605,2966.9034387582537,2984.2075425112835
84,2997.7055716547466,2997.7055716547466,3002.73376345532,3019.045237631317
85,3029.8815901704797,3029.8815901704797,3049.038518133683,3072.014470985303
86,3050.8821233150948,3050.8821233150948,3072.014470985303,3089.0539630919952
87,3109.7818230108705,3109.7818230108705,3113.7107171064363,3127.067559119165
88,3129.533871868193,3129.533871868193,3131.1855427016544,3142.742811294133
89,3154.1617440485857,3154.1617440485857,3155.2699002803265,3172.302075899225
90,3193.690446400583,3193.690446400583,3203.074000327867,3220.1879499935308
91,3251.2449632185658,3251.2449632185658,3256.8073310360123,3267.5437699722697
92,3264.9098776101123,3264.9098776101123,3278.8040540587444,3293.943456014361
93,3306.353918919045,3306.353918919045,3339.901339175875,3355.1420471498295
94,3365.3414709407516,3365.3414709407516,3369.1906592823107,3383.694341909675
95,3424.299834871957,3424.299834871957,3457.708517861702,3475.3609887997336
96,3466.10450815977,3466.10450815977,3475.3609887997336,3487.803866493131
97,3483.2023328711343,3483.2023328711343,3487.803866493131,3506.755829593895
98,3503.9924323270516,3503.9924323270516,3537.4500078396995,3547.788636220204
99,3544.3322528812605,3544.3322528812605,3547.788636220204,3563.865175785595
100,3598.8340102648663,3598.8340102648663,3599.731194467861,3618.4932867179905
101,3652.181711555308,3652.181711555308,3684.7073652818067,3702.0753824255853
102,3679.804980261516,3684.7073652818067,3702.0753824255853,3720.3570333297034
103,3702.078895753957,3702.078895753957,3720.3570333297034,3735.8586795442056
104,3737.4846687563136,3737.4846687563136,3745.02412295657,3761.6601507504884
105,3781.20276638244,3781.20276638244,3781.4867661770063,3798.772149373154
106,3829.7998587076404,3829.7998587076404,3860.298202846878,3879.5394855236727
107,3848.50429991653,3860.298202846878,3879.5394855236727,3899.2380127632023
108,3896.866000046257,3896.866000046257,3901.6300064175684,3916.862255306894
109,3945.061734612614,3945.061734612614,3946.989543562241,3966.086280230628
110,3978.6065336761694,3978.6065336761694,3986.0341098322883,4003.971741096044
111,4019.1327998712623,4019.1327998712623,4058.854196765576,4073.723791740216
112,4053.7317197102266,4058.854196765576,4073.723791740216,4095.1524112228267
113,4107.998820006292,4107.998820006292,4139.426843146355,4153.013068470815
114,4158.472135619292,4158.472135619292,4169.606458876028,4186.198601019931
115,4188.850780027782,4188.850780027782,4188.880316819583,4206.0357548802285
116,4243.254466917469,4243.254466917469,4260.813465679998,4277.695253179927
117,4274.728618686771,4274.728618686771,4288.770485093824,4301.465118527308
118,4301.1921760688265,4301.1921760688265,4301.688571183308,4315.9811821211115
119,4327.236617309819,4327.236617309819,4390.087245762027,4404.109144386714
120,4366.660138744819,4390.087245762027,4404.109144386714,4421.7029938363385
121,4395.921536731684,4395.921536731684,4421.7029938363385,4438.8784668996395
122,4417.025820349957,4417.025820349957,4438.8784668996395,4457.7692455654305
123,4458.148558771063,4458.148558771063,4459.027507990707,4474.375473810058
124,4491.672877758085,4491.672877758085,4491.782013153697,4504.669278803881
125,4532.045195453464,4532.045195453464,4535.375076845081,4549.696728942636
126,4587.000434767048,4587.000434767048,4587.289447717374,4604.374774811748
127,4626.945991342859,4626.945991342859,4631.729119860706,4648.672373732967
128,4659.406774716709,4659.406774716709,4671.80916343485,4689.771724235494
129,4713.491424394903,4713.491424394903,4725.946603911603,4743.894093087133
130,4744.5021952773495,4744.5021952773495,4744.616133137538,4759.4256601171965
131,4796.829283346768,4796.829283346768,4799.581022643883,4818.513577589181
132,4845.7244748749035,4845.7244748749035,4851.387535261841,4867.127904615822
133,4863.282288797343,4863.282288797343,4873.990975456565,4889.241616256507
134,4901.693593104247,4901.693593104247,4942.479531018487,4960.673083022345
135,4925.39026305476,4942.479531018487,4960.673083022345,4976.512158476934
136,4956.324750283015,4956.324750283015,4976.512158476934,4996.861009087895
137,5007.142651761452,5007.142651761452,5009.970486956987,5026.580198133793
138,5032.88198892936,5032.88198892936,5052.704424354591,5070.271375158931
139,5058.158417700706,5058.158417700706,5072.925546800194,5086.66506973139
140,5102.184773752797,5102.184773752797,5105.943852253465,5116.797072906805
141,5156.182616865587,5156.182616865587,5170.923220375389,5190.753571092476
142,5208.00322889106,5208.00322889106,5243.509111754455,5258.371988600133
143,5222.087235163173,5243.509111754455,5258.371988600133,5277.783399264247
144,5235.858824533594,5246.0078592461905,5277.783399264247,5293.049612170105
145,5275.527281007064,5276.634714411685,5293.049612170105,5307.93948854163
146,5303.757878315627,5303.757878315627,5309.169773557752,5323.047400682256
147,5346.437959669582,5346.437959669582,5347.1262559548095,5362.073129555513
148,5385.344864064127,5385.344864064127,5386.975378459055,5399.6128736126475
149,5407.974820932656,5407.974820932656,5428.727836365247,5442.493328702466
150,5423.494015287456,5428.727836365247,5442.493328702466,5458.971090760442
151,5447.956950964602,5447.956950964602,5482.595540799943,5496.419084925918
152,5486.1963574993915,5486.1963574993915,5496.419084925918,5515.752697260097
153,5539.227755006021,5539.227755006021,5546.076733925175,5560.349492905741
154,5569.132675300174,5569.132675300174,5575.065150739923,5590.492228962945
155,5598.592988715052,5598.592988715052,5606.576208198215,5620.78578306584
156,5621.185577755251,5621.185577755251,5625.6518700461675,5639.655996291251
157,5677.698338087971,5677.698338087971,5680.520534767376,5697.611912667643
158,5690.188994331139,5690.188994331139,5724.643148456722,5743.097020620994
159,5741.587744439731,5741.587744439731,5754.348919285324,5763.781373571488
160,5796.769873810141,5796.769873810141,5816.818301072867,5831.652339708457
161,5810.099723513766,5816.818301072867,5831.652339708457,5848.452395009541
162,5824.603763827411,5824.603763827411,5848.452395009541,5863.02160018888
163,5837.6247073651775,5843.891881499639,5863.02160018888,5884.615100303409
164,5856.070245875363,5856.070245875363,5884.615100303409,5898.85658806122
165,5885.463858407865,5885.463858407865,5917.262375087142,5933.413800704706
166,5933.720359725643,5933.720359725643,5945.555460543025,5960.382502326646
167,5951.781621913883,5951.781621913883,5960.382502326646,5980.129397890307
168,5973.353636848311,5973.353636848311,5986.074412336298,6001.493648159499
169,6029.493836095677,6029.493836095677,6030.009538584663,6044.750842384169
170,6046.090849903383,6046.090849903383,6054.320315249854,6066.227907953135
171,6081.9158644847885,6081.9158644847885,6085.161163960176,6097.705573202942
172,6107.511087469713,6107.511087469713,6110.420376287225,6128.372774598328
173,6160.141409083752,6160.141409083752,6200.955000962401,6214.096568794293
174,6182.278606335844,6200.955000962401,6214.096568794293,6232.947696329298
175,6238.016527242617,6238.016527242617,6238.14640776476,6253.373317328851
176,6284.681830980263,6284.681830980263,6299.057595064114,6313.177034873461
177,6342.153727668525,6342.153727668525,6371.0538435170565,6385.587919001448
178,6364.790910838486,6371.0538435170565,6385.587919001448,6398.470415764289
179,6418.302858366824,6418.302858366824,6421.94233074995,6439.95753532923
180,6429.776524740908,6429.776524740908,6465.456790615876,6485.786491815766
181,6457.878735286734,6465.456790615876,6485.786491815766,6496.153496065209
182,6510.469581127328,6510.469581127328,6512.4212477789415,6529.761149677438
183,6561.151956966601,6561.151956966601,6585.576530164857,6597.274883651594
184,6574.620362549262,6585.576530164857,6597.274883651594,6611.901494931671
185,6626.694366594419,6626.694366594419,6629.326287138697,6644.931066433135
186,6654.243627341978,6654.243627341978,6661.061505957113,6676.408343801042
187,6686.3904954155205,6686.3904954155205,6704.894310685016,6718.719374643126
188,6731.683230399611,6731.683230399611,6777.984879375993,6793.044713563843
189,6783.276273935858,6783.276273935858,6793.044713563843,6810.500267822083
190,6809.964375151899,6809.964375151899,6814.906115280783,6831.107707012938
191,6832.035757773306,6832.035757773306,6838.358475486497,6856.535781291356
192,6852.677651521055,6852.677651521055,6859.380849645815,6872.7201920292055
193,6878.381058678337,6878.381058678337,6881.814557871563,6896.3692873713035
194,6901.008482031999,6901.008482031999,6903.298038744558,6916.761770079704
195,6916.0834382735975,6916.0834382735975,6925.721914135614,6941.958348576985
196,6940.541735339374,6940.541735339374,6949.267249331255,6963.233323493214
197,6985.508215865252,6985.508215865252,6987.185295619669,7002.651205625444
198,7019.721954189411,7019.721954189411,7045.910892464249,7060.274503535002
199,7070.805017419947,7070.805017419947,7072.324105568508,7091.167553066363
200,7120.567021484952,7120.567021484952,7134.320975790725,7147.542725588811
201,7155.910781709834,7155.910781709834,7156.413232303001,7173.889962579775
202,7179.529655386214,7179.529655386214,7184.916310187168,7200.122087107778
203,7231.473403421823,7231.473403421823,7272.01682045692,7286.0224392986365
204,7254.095863649288,7272.01682045692,7291.099041210061,7312.866696806264
205,7269.9195156025535,7291.099041210061,7312.866696806264,7330.332909728085
206,7314.14863796575,7314.14863796575,7343.011280279299,7358.65969108709
207,7329.512395573882,7343.011280279299,7358.65969108709,7377.600261892922
208,7364.7082373555395,7364.7082373555395,7381.365497472357,7399.748174320027
209,7396.954462189253,7396.954462189253,7399.748174320027,7416.591857819654
210,7452.85132916642,7452.85132916642,7468.692091397409,7489.124005528155
211,7501.966382804472,7501.966382804472,7515.560693552514,7525.490058861398
212,7514.691944225258,7515.560693552514,7528.221450439523,7546.068212645846
213,7558.4341553171125,7558.4341553171125,7561.31484956877,7586.222772575194
214,7583.590082755688,7583.590082755688,7586.677429091558,7602.13392298244
215,7626.7197363996,7626.7197363996,7642.281571592251,7659.248916214275
216,7675.928980742214,7675.928980742214,7691.266551144279,7702.137047476508
217,7708.5425283146715,7708.5425283146715,7726.511672072498,7746.834405073766
218,7767.168360930216,7767.168360930216,7772.1949443509375,7789.59576360448
219,7782.610748879666,7782.610748879666,7789.59576360448,7807.154015690641
220,7822.634336344366,7822.634336344366,7843.639995508035,7861.892625485183
221,7861.227031724218,7861.227031724218,7867.526676326708,7882.704105860423
222,7897.948972284776,7897.948972284776,7899.762981174946,7923.271998332286
223,7950.3915345393725,7950.3915345393725,7953.436597020563,7968.601230987093
224,7985.546923937939,7985.546923937939,8000.226269404491,8019.4474991789775
225,8006.530994854764,8006.530994854764,8021.253331518864,8038.191917125148
226,8036.475715478263,8036.475715478263,8045.115442960804,8061.616329400153
227,8051.251992395497,8051.251992395497,8061.616329400153,8073.007537153104
228,8066.158150690994,8066.158150690994,8076.087025585156,8094.235188283803
229,8084.914685032748,8084.914685032748,8094.235188283803,8107.567291657503
230,8098.802091577655,8098.802091577655,8107.567291657503,8124.937904489683
231,8124.922733720891,8124.922733720891,8126.011603325947,8139.661780776938
232,8179.4712060899365,8179.4712060899365,8192.23052015001,8210.580480054909
233,8195.209166088363,8195.209166088363,8210.580480054909,8221.703512757842
234,8210.107464701781,8210.107464701781,8221.703512757842,8239.754619286623
235,8229.364905677608,8229.364905677608,8240.813606687401,8255.475190751558
236,8271.086077284624,8271.086077284624,8273.374457305124,8291.172815651129
237,8282.428374544494,8282.428374544494,8291.172815651129,8306.915553570416
238,8318.620196702306,8318.620196702306,8331.27269566724,8346.070963697419
239,8367.575821148375,8367.575821148375,8384.957080351676,8404.948062341524
240,8417.15311919501,8417.15311919501,8432.38837265964,8449.009482740074
241,8439.531177835801,8439.531177835801,8454.03631751647,8464.836362251464
242,8487.899755910645,8487.899755910645,8508.694923636944,8523.0563765679
243,8503.717476781465,8508.694923636944,8523.0563765679,8536.977900262229
244,8562.560458906513,8562.560458906513,8584.226087526937,8599.863749868737
245,8579.820843943384,8584.226087526937,8603.817695011761,8623.482868739162
246,8618.111143155982,8618.111143155982,8633.752757161401,8647.603772555336
247,8630.625130597537,8633.752757161401,8647.603772555336,8660.846590285842
248,8655.705155037134,8655.705155037134,8660.846590285842,8683.020904333034
249,8693.481747674807,8693.481747674807,8701.00774218536,8715.081173745431
250,8744.065597801122,8744.065597801122,8756.65186595613,8770.430969113726
251,8782.118890038946,8782.118890038946,8789.994646804544,8809.60515027084
252,8812.728577323975,8812.728577323975,8830.541864612884,8841.856651159065
253,8850.189358289117,8850.189358289117,8856.999944146364,8871.255627470224
254,8869.215881731676,8869.215881731676,8871.255627470224,8890.724596156042
255,8914.1022394666,8914.1022394666,8915.416557222503,8928.639795041028
256,8963.246514439876,8963.246514439876,8986.986977347036,8996.402676252936
