# file created by code in harbour_fns_1896438.jl
# file created on 2026-03-09 at 15:39:42
# parameter: seed = 1896561
# parameter: T = 30000.0
# parameter: lower_interarrival = 11.0
# parameter: upper_interarrival = 59.0
# parameter: mean_process_times = [11.0, 16.0]
# parameter: max_queue = [9223372036854775807, 4]
# parameter: time_units = hours
id,arrival_time,start_service_times,start_service_times,completion_time
1,0.0,0.0,2.659365342665368,19.045354271738788
2,15.109643138225984,15.109643138225984,19.045354271738788,32.02606077359707
3,27.066437677585,27.066437677585,32.02606077359707,51.060967499866884
4,71.80005627233709,71.80005627233709,89.21947736540923,106.6102932619886
5,103.46210450830203,103.46210450830203,117.26695210297302,128.08473535699744
6,159.25511730127636,159.25511730127636,169.6902217472814,180.74569608892185
7,211.6202024310707,211.6202024310707,217.39021074026218,228.2012678487315
8,254.5883056548678,254.5883056548678,258.854731685816,274.6962134328854
9,298.8745301000916,298.8745301000916,305.2279532717386,313.1097526635289
10,320.87612611732993,320.87612611732993,333.19465045798404,348.7034310587419
11,352.8733976055537,352.8733976055537,425.8382124694283,434.17075930818004
12,364.2134133250388,425.8382124694283,440.4330020414342,452.42208796716966
13,414.14121200639397,440.4330020414342,461.4686827168779,480.3664022258414
14,457.450079668423,461.4686827168779,485.61665632955396,499.3588741647388
15,508.37808242142944,508.37808242142944,512.1645766473808,524.4712004448528
16,549.4129551642725,549.4129551642725,549.9880163578131,568.4004190097996
17,593.9430658862482,593.9430658862482,598.6134195758174,613.5322001064471
18,613.4538432564194,613.4538432564194,656.610293389364,675.3107521132926
19,628.1978633211602,656.610293389364,675.3107521132926,689.4420793071047
20,645.3072755771688,664.7688968585859,689.4420793071047,704.4803392816004
21,686.4904566905327,686.4904566905327,704.4803392816004,714.1365618806766
22,719.9301200355978,719.9301200355978,743.7274244481561,762.6223346248747
23,742.37738896544,743.7274244481561,762.6223346248747,785.0466932089342
24,759.5575218115421,759.5575218115421,799.675819087466,811.8379670771452
25,805.438911013779,805.438911013779,823.9651281632682,847.2785142075346
26,829.194313508114,829.194313508114,847.9060447784739,863.8606190014387
27,851.2275851787207,851.2275851787207,863.8606190014387,878.9443535015224
28,873.1610688976106,873.1610688976106,910.6643003278112,924.9381276536571
29,885.3787010443474,910.6643003278112,928.2563343593782,942.949149651785
30,924.3663157557557,928.2563343593782,943.8170122076799,964.3575673349999
31,941.6003634651103,943.8170122076799,964.3575673349999,981.1433083407981
32,970.170080637937,970.170080637937,981.1433083407981,998.904059477606
33,982.7447413247316,982.7447413247316,998.904059477606,1011.511905347429
34,993.8425957778005,993.8425957778005,1011.511905347429,1028.6166678433524
35,1047.9593903556386,1047.9593903556386,1054.0108814379034,1066.7984834195718
36,1067.7506926104982,1067.7506926104982,1096.1025226007587,1112.0485605147876
37,1113.3664663325533,1113.3664663325533,1116.7569495210469,1132.071085183672
38,1167.7976780081592,1167.7976780081592,1168.5037582795517,1182.143358079045
39,1202.7855854269912,1202.7855854269912,1204.2997166204602,1222.7638235459608
40,1230.0711017965825,1230.0711017965825,1263.7946972421805,1281.3738138792676
41,1247.1676229855964,1263.7946972421805,1281.3738138792676,1296.6704977774843
42,1277.9097111393578,1277.9097111393578,1296.6704977774843,1312.5603416361166
43,1299.9994932301058,1299.9994932301058,1312.5603416361166,1333.2772099578517
44,1313.9083023542928,1313.9083023542928,1347.0207324246917,1362.9976117547503
45,1360.7256305777114,1360.7256305777114,1388.7946944549003,1404.6158489433146
46,1398.9011439206665,1398.9011439206665,1408.1502228414863,1424.493737742763
47,1417.8094621402397,1417.8094621402397,1424.493737742763,1442.4783775331152
48,1470.7664570013612,1470.7664570013612,1516.5308641439276,1531.9622349626277
49,1512.8343314394644,1516.5308641439276,1531.9622349626277,1551.0540092998592
50,1554.5448227953925,1554.5448227953925,1554.8509200603726,1570.901021799851
51,1604.4165431362833,1604.4165431362833,1610.1106438469803,1625.9192510040734
52,1615.526579024622,1615.526579024622,1625.9192510040734,1639.7339489275819
53,1662.7774385056368,1662.7774385056368,1663.108359734676,1680.492301770441
54,1709.3503722864166,1709.3503722864166,1711.6362591803093,1730.5716248676565
55,1766.0061854223607,1766.0061854223607,1769.0043117891246,1792.4959958477993
56,1783.5487230176113,1783.5487230176113,1792.4959958477993,1814.9179281830368
57,1836.4028141809858,1836.4028141809858,1843.3542817175867,1859.9421661693057
58,1878.9430619484183,1878.9430619484183,1894.1598941779507,1907.6750308212631
59,1892.5424521108846,1894.1598941779507,1908.603681182795,1920.3370662599332
60,1933.1878117815795,1933.1878117815795,1936.9033700463644,1951.844896611296
61,1985.4163207440604,1985.4163207440604,1985.9967702991346,2004.6859269346473
62,2025.7512899906133,2025.7512899906133,2028.169133759275,2046.618204701281
63,2040.2502732721334,2040.2502732721334,2046.618204701281,2065.077546334123
64,2082.604891738479,2082.604891738479,2085.4755787371537,2107.8038612331347
65,2122.0627286657555,2122.0627286657555,2128.723000180361,2143.0114521506985
66,2154.7445843209844,2154.7445843209844,2159.2473593624354,2168.6199536868776
67,2177.6851171738867,2177.6851171738867,2179.2729334240776,2196.377627045748
68,2203.3345452447725,2203.3345452447725,2222.3321477390245,2242.3471093834864
69,2236.3192278046968,2236.3192278046968,2249.079253265429,2263.9347845050943
70,2292.1391900426,2292.1391900426,2292.340754627883,2311.4331667399238
71,2343.0119533096517,2343.0119533096517,2350.527851007046,2367.5135621698337
72,2368.700824590538,2368.700824590538,2372.7234976200143,2388.486842686685
73,2426.7231785631516,2426.7231785631516,2428.117596619528,2446.872037267049
74,2442.7333073639134,2442.7333073639134,2451.550110475887,2465.6863872320505
75,2497.4860257148657,2497.4860257148657,2505.6609575094653,2521.919352426201
76,2513.445024678423,2513.445024678423,2524.790152864878,2538.861513048622
77,2542.437164046437,2542.437164046437,2544.6674235870573,2559.702201969026
78,2587.2295866090126,2587.2295866090126,2590.0297965639115,2609.5499050969815
79,2634.1497472852275,2634.1497472852275,2646.48742886988,2663.7372214351203
80,2677.446964097181,2677.446964097181,2681.411765736137,2700.8254858846135
81,2722.550736092053,2722.550736092053,2728.230395105168,2737.7951355165355
82,2755.2160188642406,2755.2160188642406,2756.9354628049946,2776.5919426947476
83,2793.706196216673,2793.706196216673,2794.7948057042245,2818.0266620805446
84,2833.7121729243563,2833.7121729243563,2845.893042350423,2864.542103321479
85,2884.8688491670846,2884.8688491670846,2907.6670021292834,2920.4901649516296
86,2896.6695027944265,2907.6670021292834,2920.4901649516296,2933.4492293673857
87,2933.797562855909,2933.797562855909,2947.4390073775394,2960.775612729868
88,2948.688515325433,2948.688515325433,2960.775612729868,2977.6611102707757
89,2960.6200264380045,2960.6200264380045,2977.6611102707757,2992.789219833857
90,3004.059174034106,3004.059174034106,3005.44987946437,3020.301254356407
91,3032.887229808748,3032.887229808748,3044.2900663250507,3056.571303518791
92,3047.079654839885,3047.079654839885,3059.127995202583,3074.232886032014
93,3070.9895631939617,3070.9895631939617,3081.0143079003587,3094.742219448181
94,3097.5578296780486,3097.5578296780486,3101.4926794839425,3118.2235983424443
95,3138.076998516597,3138.076998516597,3140.931721648803,3156.0369571049214
96,3179.18299353014,3179.18299353014,3206.449937063197,3223.400268620028
97,3193.2022361083596,3206.449937063197,3223.400268620028,3239.5940758531206
98,3241.7232877860392,3241.7232877860392,3241.767957652476,3252.626522242489
99,3264.684905325536,3264.684905325536,3264.859934300856,3282.7794159360974
100,3311.950455032542,3311.950455032542,3312.353529859563,3327.4028841880713
101,3344.6241557994977,3344.6241557994977,3361.176037504486,3381.430276941719
102,3356.366872963243,3361.176037504486,3381.430276941719,3397.173612091902
103,3400.507569103721,3400.507569103721,3445.2048098833598,3463.828057120604
104,3459.177890117561,3459.177890117561,3463.828057120604,3483.1548560400197
105,3474.4911003466063,3474.4911003466063,3483.6447327953542,3497.359959186502
106,3532.381684786001,3532.381684786001,3544.461983843387,3555.252420700139
107,3564.9154103335004,3564.9154103335004,3567.902685942338,3582.700266025761
108,3594.12111699104,3594.12111699104,3631.225820002837,3651.870249933909
109,3639.808408750378,3639.808408750378,3690.865164339672,3710.3668050165206
110,3664.5219133600267,3690.865164339672,3717.553082719675,3728.89916618141
111,3688.861599567101,3717.553082719675,3728.89916618141,3747.187890849473
112,3725.189874356069,3726.677769849765,3747.187890849473,3762.8899818887435
113,3766.103135356847,3766.103135356847,3766.3988305282046,3784.3684243309176
114,3812.3587944730943,3812.3587944730943,3819.6108359716095,3836.587436424191
115,3866.3871094231945,3866.3871094231945,3878.084938536141,3897.5725029851524
116,3909.817104388953,3909.817104388953,3915.3863054207677,3932.2836456354876
117,3951.07746149674,3951.07746149674,3969.2297656203236,3981.9196348323912
118,3994.3813646538656,3994.3813646538656,3998.625850614719,4009.319546933436
119,4022.67927946904,4022.67927946904,4025.3764841134894,4041.0455537517496
120,4064.082037842174,4064.082037842174,4078.7437766762614,4093.52001428316
121,4075.8059908466676,4078.7437766762614,4093.52001428316,4107.162070685849
122,4123.665201339665,4123.665201339665,4134.941101539952,4156.2855326037725
123,4182.501293716855,4182.501293716855,4201.668968891373,4218.610264786668
124,4206.920897944207,4206.920897944207,4218.610264786668,4242.688473018852
125,4240.726302217667,4240.726302217667,4258.547274981181,4276.208693259374
126,4267.860869854925,4267.860869854925,4292.686932552259,4313.336950731369
127,4300.4353871350195,4300.4353871350195,4324.974978193113,4338.108161789768
128,4347.801925396054,4347.801925396054,4348.062919591356,4364.941910739546
129,4361.4047484959965,4361.4047484959965,4395.075199454109,4406.280555277595
130,4394.983024964467,4395.075199454109,4406.280555277595,4418.955758650531
131,4438.49524874305,4438.49524874305,4444.800083922524,4464.79459455196
132,4469.8783440223115,4469.8783440223115,4503.296090094721,4517.29006140729
133,4485.979724113027,4503.296090094721,4528.838811943523,4542.303353241522
134,4515.953246085434,4528.838811943523,4542.303353241522,4558.501743503415
135,4568.812299312599,4568.812299312599,4589.577824326745,4605.782143147025
136,4613.611833148002,4613.611833148002,4635.308020652021,4649.9774209779625
137,4640.751640684255,4640.751640684255,4649.9774209779625,4664.497806158466
138,4684.437510848336,4684.437510848336,4690.272677184649,4714.354324440664
139,4717.31615758428,4717.31615758428,4748.520608469607,4759.477352474854
140,4760.528588808106,4760.528588808106,4760.848740184713,4775.838041660679
141,4772.108707192038,4772.108707192038,4775.838041660679,4792.641959864731
142,4827.941195364788,4827.941195364788,4847.0776733851535,4865.809375273781
143,4860.6418718461955,4860.6418718461955,4876.404883938815,4893.347145415228
144,4874.165006023128,4876.404883938815,4897.438893104938,4915.199402488903
145,4887.488947496988,4897.438893104938,4915.199402488903,4933.195845037423
146,4944.560938896018,4944.560938896018,4945.641277684406,4963.361149831311
147,4977.3480608350255,4977.3480608350255,4990.394081227521,5003.330931530407
148,5029.101338046789,5029.101338046789,5053.503777217196,5065.471284778929
149,5043.304057848598,5053.503777217196,5070.7176848152585,5091.201407736926
150,5082.993518497049,5082.993518497049,5092.387845981086,5107.578603578233
151,5108.162496953866,5108.162496953866,5124.093154553266,5144.237427307461
152,5130.087153534347,5130.087153534347,5144.237427307461,5161.273361272509
153,5171.896212312792,5171.896212312792,5192.795861300644,5216.764458626299
154,5187.205997579247,5192.795861300644,5216.764458626299,5228.683586593993
155,5232.134228224892,5232.134228224892,5242.259587293205,5256.59822732261
156,5246.174212111363,5246.174212111363,5259.192836289663,5278.244673509336
157,5262.474871375518,5262.474871375518,5278.244673509336,5295.685816427311
158,5289.031371517108,5289.031371517108,5322.702481310033,5336.176724454248
159,5335.089391588062,5335.089391588062,5341.881689295984,5357.718287012624
160,5355.899768595809,5355.899768595809,5374.251838504722,5389.228030174173
161,5387.007626178353,5387.007626178353,5411.543789122412,5431.418217121471
162,5414.556005856109,5414.556005856109,5448.264759808549,5470.817727525268
163,5437.076777852172,5448.264759808549,5470.817727525268,5490.216048048282
164,5453.396788872633,5466.73378511079,5490.216048048282,5506.214706038818
165,5480.100632086307,5480.100632086307,5506.214706038818,5518.314103038072
166,5527.472238648774,5527.472238648774,5532.256731685,5546.246756482635
167,5539.02810496537,5539.02810496537,5546.246756482635,5562.164599540672
168,5561.916927723828,5561.916927723828,5600.392875897341,5612.686734462002
169,5592.273226004097,5600.392875897341,5612.686734462002,5632.505984338388
170,5621.462560309978,5621.462560309978,5632.505984338388,5647.21399028813
171,5646.993134869867,5646.993134869867,5647.21399028813,5660.4803632506055
172,5705.045737302465,5705.045737302465,5710.076332222116,5731.977824279163
173,5743.724744602548,5743.724744602548,5749.287832569237,5767.15915956129
174,5783.294142890466,5783.294142890466,5789.51994449419,5806.882657524802
175,5818.902868485895,5818.902868485895,5824.150743115179,5841.557979544287
176,5865.226615054025,5865.226615054025,5868.508632542884,5883.187419137773
177,5908.956581227412,5908.956581227412,5910.547402475971,5927.27290838449
178,5946.099977367281,5946.099977367281,5976.919819676842,5995.000074103828
179,5963.071129238855,5976.919819676842,6002.650421433599,6015.604652856276
180,5988.705625612855,6002.650421433599,6015.604652856276,6028.320189701481
181,6003.828141802873,6008.978418594701,6028.320189701481,6046.704793745631
182,6033.373067283794,6033.373067283794,6046.704793745631,6061.082914390909
183,6049.881630122616,6049.881630122616,6061.082914390909,6080.757573315455
184,6090.99459855981,6090.99459855981,6092.692255904005,6106.553379724853
185,6108.246651688227,6108.246651688227,6112.435598854601,6131.163227467705
186,6160.269662945824,6160.269662945824,6164.799193436208,6181.192924766711
187,6215.73561547801,6215.73561547801,6216.51877008712,6230.086614204678
188,6274.148615887798,6274.148615887798,6284.814681784513,6299.89235315772
189,6303.539718997358,6303.539718997358,6306.650362006319,6320.784730003486
190,6325.111829913537,6325.111829913537,6325.617369490536,6341.852219143606
191,6345.031631822244,6345.031631822244,6345.55234734577,6360.496716205702
192,6400.943067300803,6400.943067300803,6412.823520104438,6427.646638366412
193,6426.425672201709,6426.425672201709,6439.591654389059,6459.022627084828
194,6444.167190630474,6444.167190630474,6459.022627084828,6472.987689407372
195,6494.15936656727,6494.15936656727,6498.290243536827,6515.404626933334
196,6526.173390064799,6526.173390064799,6529.625494469367,6541.435494603543
197,6555.373115996824,6555.373115996824,6556.279138028298,6573.0055573817
198,6605.890679035266,6605.890679035266,6627.336146630254,6644.6289901622085
199,6624.034641338979,6627.336146630254,6645.368033388458,6661.738246821485
200,6645.218380558229,6645.368033388458,6661.738246821485,6686.442793542975
201,6701.121359669117,6701.121359669117,6704.033033420345,6721.359283994451
202,6740.792962495507,6740.792962495507,6747.842230296959,6764.799000383572
203,6794.907891320891,6794.907891320891,6809.915667742294,6824.691004981679
204,6819.657725419431,6819.657725419431,6824.691004981679,6838.823075412606
205,6873.593317083066,6873.593317083066,6894.0349909284705,6911.56462816855
206,6908.980737686168,6908.980737686168,6933.224672519611,6948.039684833571
207,6921.7753135959165,6933.224672519611,6948.039684833571,6962.071965028592
208,6945.760591710239,6945.760591710239,6962.071965028592,6974.833669381137
209,6977.030731463309,6977.030731463309,6986.9784601498095,6997.627874333822
210,7011.6501488450285,7011.6501488450285,7016.6218492764565,7036.022404957087
211,7066.792616462835,7066.792616462835,7069.710664720684,7088.897559529184
212,7104.071301492262,7104.071301492262,7109.3714189975835,7125.735732429627
213,7139.39095236,7139.39095236,7152.388521654693,7171.4932601081255
214,7182.800277580909,7182.800277580909,7213.215357577461,7234.006254803217
215,7236.988466403471,7236.988466403471,7250.87187104691,7265.873294442353
216,7290.27578910359,7290.27578910359,7296.7875738338325,7310.535102634859
217,7308.9094589776305,7308.9094589776305,7318.577816844348,7332.451416801959
218,7334.15201611386,7334.15201611386,7336.806266349298,7351.28447297445
219,7349.630194915899,7349.630194915899,7391.493616631567,7407.5470243722175
220,7408.620780110638,7408.620780110638,7424.1951999091625,7438.134566160729
221,7426.287027038509,7426.287027038509,7448.367627073749,7464.844797957869
222,7480.334909276793,7480.334909276793,7483.17508818492,7499.205195596718
223,7493.939833554879,7493.939833554879,7506.82490306456,7520.106088114518
224,7541.044941422931,7541.044941422931,7588.872182924519,7603.209193794279
225,7582.049473402751,7588.872182924519,7604.515634830139,7614.351120961517
226,7640.878900451681,7640.878900451681,7642.520620392851,7659.834380501808
227,7669.066052306752,7669.066052306752,7674.737992647597,7687.602918323513
228,7680.081961240826,7680.081961240826,7692.102125446476,7708.972968105504
229,7727.74090349011,7727.74090349011,7736.884060681068,7757.641866605742
230,7749.667964438093,7749.667964438093,7767.011263850587,7788.492600044027
231,7791.964321497658,7791.964321497658,7793.863002286148,7806.645952148013
232,7824.646363399942,7824.646363399942,7826.120350656684,7835.999209735052
233,7860.314885426169,7860.314885426169,7860.665249903305,7878.494530146889
234,7896.659556352166,7896.659556352166,7903.409105898117,7919.1035217869485
235,7929.169228899605,7929.169228899605,7936.406361832351,7949.188919920999
236,7941.423154591618,7941.423154591618,7949.188919920999,7970.012791364463
237,7985.731289273915,7985.731289273915,7991.682908532872,8007.529182159581
238,8029.810633261923,8029.810633261923,8035.623161642852,8050.5115879811765
239,8052.1903578086585,8052.1903578086585,8070.640630552632,8089.177605216162
240,8078.054782435126,8078.054782435126,8123.489944069397,8132.724877789437
241,8093.19023934173,8123.489944069397,8132.724877789437,8148.454175282851
242,8110.645598768427,8130.092711768707,8157.75511300713,8175.865885075134
243,8126.6542042411465,8157.75511300713,8175.865885075134,8188.554781416258
244,8163.113943332616,8166.013590785106,8188.554781416258,8200.714629587226
245,8180.613593504245,8183.581214384458,8200.714629587226,8216.387788261116
246,8226.169171879483,8226.169171879483,8253.034521048454,8264.701302740996
247,8252.147131304702,8253.034521048454,8264.701302740996,8281.553567729445
248,8309.16273854636,8309.16273854636,8310.932407078417,8331.698381304708
249,8359.836770670012,8359.836770670012,8367.300340921773,8387.748606726069
250,8411.723876456206,8411.723876456206,8421.708960441267,8435.112481451222
251,8458.875652782355,8458.875652782355,8482.901239762854,8494.141543940035
252,8512.420774647211,8512.420774647211,8515.283047804014,8528.665493042865
253,8567.338601483725,8567.338601483725,8578.607210961405,8600.15596672744
254,8619.287203921234,8619.287203921234,8628.162267748441,8642.788019708238
255,8666.591332030934,8666.591332030934,8668.633274211512,8689.634400934625
256,8693.399496595957,8693.399496595957,8702.581927035559,8722.945359055066
257,8741.922981118609,8741.922981118609,8747.40181850773,8761.72668509995
