# file created by code in harbour_fns_1896438.jl
# file created on 2026-03-09 at 15:39:39
# parameter: seed = 1896522
# parameter: T = 30000.0
# parameter: lower_interarrival = 11.0
# parameter: upper_interarrival = 59.0
# parameter: mean_process_times = [11.0, 16.0]
# parameter: max_queue = [9223372036854775807, 4]
# parameter: time_units = hours
id,arrival_time,start_service_times,start_service_times,completion_time
1,0.0,0.0,10.32470269045159,26.004360959708023
2,52.78672965712748,52.78672965712748,54.83171936767691,72.29413618881043
3,82.39148060866346,82.39148060866346,89.09430789077354,103.48378120162062
4,128.06502569083756,128.06502569083756,134.4304726928309,147.62451754358057
5,186.0415774006518,186.0415774006518,201.64472293948256,223.14407659388112
6,226.44864308487223,226.44864308487223,229.11724796973468,245.93959245166704
7,253.02499569092817,253.02499569092817,282.4428270842201,302.942729428647
8,302.9211744050135,302.9211744050135,315.4190972647969,331.7803617983971
9,320.84459745268,320.84459745268,336.04693019706536,351.18147045935575
10,340.2156575963151,340.2156575963151,362.20382751333597,378.6958202944025
11,371.47154058345,371.47154058345,378.6958202944025,393.472374860735
12,425.91734276685816,425.91734276685816,430.82627778229084,449.5064069020372
13,480.5666513047887,480.5666513047887,503.07647629408314,523.8939712427442
14,495.6982777243521,503.07647629408314,523.8939712427442,539.908294398838
15,527.7042190031739,527.7042190031739,539.908294398838,556.8260596311084
16,543.2457706172072,543.2457706172072,556.8260596311084,572.1321338678932
17,580.5537355377849,580.5537355377849,582.9123654704741,604.9640224987892
18,599.1968859312841,599.1968859312841,604.9640224987892,617.5066802243792
19,619.8077750552235,619.8077750552235,641.7886460677852,662.3189742968806
20,658.5231800674363,658.5231800674363,662.3189742968806,679.159655291514
21,678.6663687225422,678.6663687225422,691.8978965662478,705.6418269716172
22,728.281109989041,728.281109989041,737.6977333852301,755.0527704193312
23,752.6615962474601,752.6615962474601,763.4465066004782,781.6690499111355
24,807.8685136599821,807.8685136599821,820.6533821844519,836.6642960877531
25,845.5687696567362,845.5687696567362,847.174135461483,862.1747679696394
26,901.8574269594719,901.8574269594719,904.9491582281628,919.7347279215105
27,919.068418784371,919.068418784371,933.0294497190907,942.3986447759594
28,964.4591611232081,964.4591611232081,964.4847413373791,979.9330623854661
29,1011.9912465646819,1011.9912465646819,1051.3445304545507,1071.6973320724858
30,1066.775134768977,1066.775134768977,1071.6973320724858,1087.0237520770881
31,1099.0618258226216,1099.0618258226216,1103.8253302066837,1119.9125330052873
32,1120.9966952434022,1120.9966952434022,1129.4855486601068,1144.942532265428
33,1173.0227539408772,1173.0227539408772,1175.5754615246688,1188.4009651343827
34,1186.676950586739,1186.676950586739,1191.0662619244033,1209.0174372063188
35,1214.8103710523474,1214.8103710523474,1237.248431791398,1249.5574836037467
36,1243.306813182298,1243.306813182298,1249.5574836037467,1264.9555953104007
37,1278.940666457705,1278.940666457705,1308.8207840073035,1323.6184806919211
38,1306.4396442894545,1308.8207840073035,1323.6184806919211,1339.1180311541377
39,1330.7004093234864,1330.7004093234864,1339.1180311541377,1354.4014553546656
40,1365.5248643802024,1365.5248643802024,1372.0337250794614,1385.6537254284672
41,1395.1498916238174,1395.1498916238174,1399.7334272287437,1412.0131969291986
42,1408.1689380585349,1408.1689380585349,1431.9641111673873,1448.3870187232742
43,1455.9949978307409,1455.9949978307409,1471.1973075675178,1495.2785273529298
44,1505.5660085531592,1505.5660085531592,1508.4787918200361,1526.0571094825218
45,1543.4699106230887,1543.4699106230887,1546.480552296503,1567.045185219358
46,1598.476551327313,1598.476551327313,1612.2810826605885,1624.6945353152191
47,1626.6959367469688,1626.6959367469688,1627.564719074391,1642.709238178395
48,1667.558511088218,1667.558511088218,1668.1999978568342,1685.7029380263186
49,1706.7495857773529,1706.7495857773529,1706.7917621228576,1720.6768228123747
50,1732.7003679568772,1732.7003679568772,1761.7652016897162,1777.688263463727
51,1769.2571812952303,1769.2571812952303,1777.688263463727,1795.66830780063
52,1811.6239962063428,1811.6239962063428,1812.17428979184,1829.3807398781541
53,1836.5715632375639,1836.5715632375639,1845.1570093323323,1859.0948088723444
54,1851.9627845642958,1851.9627845642958,1859.2806692789998,1876.2651124851648
55,1866.1137020895717,1866.1137020895717,1899.8014229837227,1914.6822734320956
56,1883.9538777213604,1899.8014229837227,1916.3608843344527,1932.1752233428078
57,1919.4604494222317,1919.4604494222317,1932.1752233428078,1945.5946765516028
58,1977.3940846070177,1977.3940846070177,1999.2120878555097,2015.2011615395106
59,1996.65279592716,1999.2120878555097,2071.685676503817,2088.261164082276
60,2035.897378365465,2071.685676503817,2088.261164082276,2103.9021850039294
61,2078.367546236717,2078.367546236717,2103.9021850039294,2118.188342628786
62,2128.1215553227435,2128.1215553227435,2129.1194963592266,2146.3098451631313
63,2186.3817725740832,2186.3817725740832,2219.573114569261,2232.8086186132564
64,2213.816177364194,2219.573114569261,2232.8086186132564,2245.047285324646
65,2271.819785825144,2271.819785825144,2272.482106844552,2288.1193397828006
66,2291.4399371315444,2291.4399371315444,2318.4825699346306,2334.549279073833
67,2324.8719527648464,2324.8719527648464,2340.0805742116086,2362.170892864298
68,2372.588076100982,2372.588076100982,2387.8326620794614,2404.814048348941
69,2427.4264167665783,2427.4264167665783,2430.093948958247,2448.720900891623
70,2470.7497908482173,2470.7497908482173,2480.3611628550843,2491.105672442486
71,2486.813321175674,2486.813321175674,2500.639681149215,2513.7223796888316
72,2508.2531114550957,2508.2531114550957,2513.7223796888316,2525.069448094676
73,2546.6170108058645,2546.6170108058645,2550.8966439256915,2567.9407486776595
74,2563.4566900299465,2563.4566900299465,2574.1850563740754,2592.3758533122336
75,2593.052270037166,2593.052270037166,2604.3192274666926,2621.022102186568
76,2610.445841315806,2610.445841315806,2621.022102186568,2636.9198196369684
77,2630.6109254533003,2630.6109254533003,2637.3834756944602,2655.1015545084124
78,2675.205972556206,2675.205972556206,2679.2281451604917,2697.512735103665
79,2730.504629030698,2730.504629030698,2744.67110497375,2762.6257793208174
80,2768.7309641235197,2768.7309641235197,2778.8980160429114,2792.2583079231204
81,2779.869113214027,2779.869113214027,2792.2583079231204,2809.4178896365042
82,2812.0651713844995,2812.0651713844995,2827.965611636063,2846.5249174645874
83,2864.8162833102647,2864.8162833102647,2877.8812023578384,2896.473950368494
84,2907.738749320225,2907.738749320225,2909.4697357886675,2926.0669143740797
85,2924.13611377108,2924.13611377108,2960.2358190988157,2970.667270990941
86,2958.297322481783,2960.2358190988157,3001.3597961181354,3013.7854045815398
87,3009.609814089072,3009.609814089072,3025.798132583395,3040.6984301194957
88,3068.283805037424,3068.283805037424,3078.939543311859,3092.9387797374684
89,3115.861531658081,3115.861531658081,3140.940744733758,3155.541098382016
90,3135.0706136772314,3140.940744733758,3155.541098382016,3170.860592277444
91,3147.0217270365597,3147.0217270365597,3170.860592277444,3187.1865668054093
92,3184.394638596363,3184.394638596363,3195.8877555014374,3214.1061981733988
93,3227.318460558606,3227.318460558606,3234.623638528476,3253.623257636429
94,3261.516577610474,3261.516577610474,3265.134524261332,3280.58162440408
95,3318.1671340957796,3318.1671340957796,3328.5588946176476,3345.0572951616277
96,3373.133329195739,3373.133329195739,3376.9664492087127,3395.061679136364
97,3394.7343149705484,3394.7343149705484,3396.4789877155467,3414.529542785298
98,3418.2493079391406,3418.2493079391406,3431.4044027428013,3451.9090642852425
99,3450.2045223100167,3450.2045223100167,3463.915683782303,3482.7508487794603
100,3489.4752127116753,3489.4752127116753,3490.0542457397614,3502.558106852198
101,3507.9702236368676,3507.9702236368676,3514.413536055194,3529.556620252079
102,3536.7375798824623,3536.7375798824623,3547.1852267958566,3561.083736479819
103,3581.5694640669094,3581.5694640669094,3594.623388515233,3612.3483074835917
104,3607.8816658515448,3607.8816658515448,3615.184175676988,3628.516187228454
105,3619.3999871644123,3619.3999871644123,3628.516187228454,3649.3388106678503
106,3633.7179035238146,3633.7179035238146,3649.3388106678503,3672.5038226816764
107,3650.269590094304,3650.269590094304,3672.5038226816764,3686.0466998936135
108,3704.4766573602074,3704.4766573602074,3706.9174985289983,3726.270703402297
109,3745.0709844018825,3745.0709844018825,3748.3334681041656,3764.865223414904
110,3776.1057273016263,3776.1057273016263,3783.7584150870907,3797.8619923970655
111,3810.136996798271,3810.136996798271,3813.6750659671584,3834.10746552626
112,3846.4686550975507,3846.4686550975507,3847.101842081846,3870.2189482422395
113,3875.8990714051383,3875.8990714051383,3900.891893727622,3913.9371828262715
114,3907.205533793146,3907.205533793146,3929.1884787160884,3944.7200856988193
115,3957.024868383641,3957.024868383641,3960.7143685780998,3979.4982320264126
116,3969.390193540483,3969.390193540483,3979.4982320264126,3990.4866584808037
117,4000.59474167296,4000.59474167296,4000.678839418589,4022.2083179784768
118,4019.2021170073795,4019.2021170073795,4033.781615540557,4053.1480673249716
119,4035.4055362743325,4035.4055362743325,4053.1480673249716,4068.4429709124847
120,4086.4588745482097,4086.4588745482097,4096.894915348619,4116.402930645708
121,4128.96386142154,4128.96386142154,4130.057366430956,4151.124387118071
122,4171.751182899298,4171.751182899298,4177.407835170679,4196.96424193056
123,4196.043116488279,4196.043116488279,4209.835003286798,4222.075578256053
124,4231.4221737233165,4231.4221737233165,4240.309036670467,4255.129713638423
125,4245.645578989221,4245.645578989221,4255.129713638423,4269.098674468876
126,4293.72661145341,4293.72661145341,4324.899263453032,4340.06760454666
127,4319.979531777026,4324.899263453032,4340.06760454666,4357.422708486564
128,4335.614067325476,4335.614067325476,4357.422708486564,4372.221965928014
129,4357.157158983739,4357.157158983739,4376.585144938465,4390.000058078442
130,4370.195388982823,4376.585144938465,4390.000058078442,4407.283401324406
131,4428.738669768138,4428.738669768138,4437.630357939669,4456.020950158807
132,4482.92154299253,4482.92154299253,4508.231359201482,4528.602386579543
133,4520.306426437171,4520.306426437171,4528.602386579543,4542.201574416582
134,4573.523678566354,4573.523678566354,4576.275339358968,4587.896385727461
135,4586.701644391993,4586.701644391993,4591.629711496476,4611.149743785167
136,4638.895432417508,4638.895432417508,4644.732033754331,4662.825469196917
137,4694.318924162001,4694.318924162001,4695.809427258691,4715.417894392428
138,4731.464046373045,4731.464046373045,4754.154860584384,4770.780712383616
139,4771.206159826402,4771.206159826402,4777.065750562686,4793.465158495113
140,4814.169584474476,4814.169584474476,4821.952295559509,4839.332601686018
141,4863.155524591783,4863.155524591783,4872.938623313324,4886.380728965703
142,4914.553214068556,4914.553214068556,4937.868690382165,4953.618596649998
143,4972.291044656242,4972.291044656242,4975.644657879448,4987.179112067884
144,5008.091888294695,5008.091888294695,5008.800604730283,5025.6735627113685
145,5019.597643967301,5019.597643967301,5030.359196011111,5049.631051932296
146,5058.489093903494,5058.489093903494,5076.723762689576,5096.0392502024315
147,5102.44964279305,5102.44964279305,5104.25109545685,5117.83642817763
148,5152.183500338703,5152.183500338703,5155.89219855356,5176.595994665559
149,5178.045455081983,5178.045455081983,5181.172760482236,5200.361093579682
150,5232.039261591988,5232.039261591988,5232.557042420715,5249.884718125483
151,5262.952883206662,5262.952883206662,5264.415349506249,5277.800092911907
152,5296.717062720676,5296.717062720676,5302.852429033115,5321.637929473534
153,5324.7352469502175,5324.7352469502175,5336.225776808816,5345.394539724761
154,5354.902436190928,5354.902436190928,5358.995056294502,5377.473458402709
155,5401.834071799897,5401.834071799897,5403.534381973971,5418.219284575555
156,5446.262640978378,5446.262640978378,5456.209652081102,5474.253550402545
157,5480.825902090834,5480.825902090834,5480.887618874062,5498.136940641787
158,5531.52258240376,5531.52258240376,5540.150292205709,5553.496828614998
159,5572.1720572769855,5572.1720572769855,5602.016907033473,5621.8615063990555
160,5618.323834780651,5618.323834780651,5622.348997939485,5630.723846497901
161,5634.727011386669,5634.727011386669,5647.764666272215,5660.821376823523
162,5691.426724436887,5691.426724436887,5695.172232250022,5719.29589723519
163,5703.665449570453,5703.665449570453,5719.29589723519,5735.547971303993
164,5761.41582982857,5761.41582982857,5776.142621199321,5786.412275401008
165,5813.552525509077,5813.552525509077,5813.9739316305295,5836.662274320692
166,5843.980006763222,5843.980006763222,5848.343929946675,5867.335995214491
167,5874.387091137165,5874.387091137165,5878.5702874940625,5895.351436606742
168,5919.132192984069,5919.132192984069,5990.240314183335,6004.296249018504
169,5966.261870750874,5990.240314183335,6016.76586900017,6028.0746095848945
170,6022.663677903568,6022.663677903568,6031.042059762859,6046.840913036892
171,6069.339477348595,6069.339477348595,6075.313645570919,6090.2966612905375
172,6108.084333284329,6108.084333284329,6150.451379307936,6166.684791863803
173,6148.058903946538,6150.451379307936,6166.684791863803,6178.938764932076
174,6183.483221427034,6183.483221427034,6188.541821363321,6207.678115578117
175,6235.664385689041,6235.664385689041,6235.824144782751,6251.118585967433
176,6280.0512079924865,6280.0512079924865,6290.470758234449,6306.389802366454
177,6310.887384225504,6310.887384225504,6337.512027769049,6350.87312967513
178,6361.752045230205,6361.752045230205,6367.179506718815,6377.000574313503
179,6388.530568102084,6388.530568102084,6389.879194282305,6400.315078585426
180,6400.46689610909,6400.46689610909,6409.864006902501,6420.044739774783
181,6448.747912680914,6448.747912680914,6458.404105806745,6472.68950319928
182,6486.587392674254,6486.587392674254,6491.466714013464,6511.361023144317
183,6514.283590089556,6514.283590089556,6522.599765614575,6536.416189280891
184,6555.7630269239935,6555.7630269239935,6589.492012119627,6602.5283286524
185,6569.958874252335,6589.492012119627,6602.5283286524,6618.063983910706
186,6600.5063170477515,6600.5063170477515,6618.063983910706,6636.541010641151
187,6634.221678436131,6634.221678436131,6638.315009319025,6647.903474813945
188,6658.783885390855,6658.783885390855,6659.723132235206,6680.729864984118
189,6695.862866691232,6695.862866691232,6704.345315712239,6717.362784339075
190,6753.615784115403,6753.615784115403,6756.800312514502,6772.779861541392
191,6777.025820175408,6777.025820175408,6783.161183527029,6796.344020878681
192,6812.791058158772,6812.791058158772,6818.3820843506865,6830.442543455494
193,6831.102086507395,6831.102086507395,6846.443556856703,6864.545253585067
194,6875.417330086579,6875.417330086579,6904.958498058026,6917.977705567198
195,6908.702530730816,6908.702530730816,6917.977705567198,6934.641468076702
196,6948.592769717578,6948.592769717578,6952.7677533987235,6965.994883389313
197,6970.66687428977,6970.66687428977,6980.104763186468,6996.265170695101
198,6993.152037161588,6993.152037161588,7001.750731334343,7012.0604356436625
199,7004.409869795844,7004.409869795844,7012.0604356436625,7024.843982870278
200,7055.2437761828205,7055.2437761828205,7086.059453961812,7102.727175421225
201,7068.384339269701,7086.059453961812,7102.727175421225,7118.832996060847
202,7109.325509224289,7109.325509224289,7118.832996060847,7129.731031058637
203,7149.294788560241,7149.294788560241,7157.5947271548375,7181.521656975415
204,7192.532355653762,7192.532355653762,7192.800308027907,7207.055956582946
205,7218.9038317377945,7218.9038317377945,7236.086172541951,7252.093509665223
206,7241.911863979773,7241.911863979773,7252.093509665223,7268.844678606258
207,7288.741989125068,7288.741989125068,7295.138604955932,7311.933718697638
208,7329.347418524956,7329.347418524956,7329.739062543386,7351.608667751982
209,7364.121878411185,7364.121878411185,7394.1918130862605,7407.563636191724
210,7407.361151508898,7407.361151508898,7416.6609736238015,7435.618930973235
211,7443.631454898122,7443.631454898122,7452.554068920997,7467.0530749843
212,7470.869126622814,7470.869126622814,7490.3428129124,7512.738505357764
213,7508.33872090105,7508.33872090105,7529.777028313927,7542.94992316879
214,7536.471518895109,7536.471518895109,7548.246832762429,7560.953098846395
215,7548.485006984618,7548.485006984618,7560.953098846395,7577.850225251851
216,7586.848399016058,7586.848399016058,7590.115145148288,7606.087027437222
217,7626.85058374117,7626.85058374117,7634.795910422029,7649.116481589524
218,7678.338733834742,7678.338733834742,7683.355009426888,7700.756989245937
219,7714.790691003752,7714.790691003752,7723.394275344346,7741.951758005208
220,7773.652600494738,7773.652600494738,7777.845178650926,7794.99345711072
221,7820.1986434835835,7820.1986434835835,7855.919783416758,7869.673593981474
222,7859.154562281504,7859.154562281504,7872.186610219343,7895.282367745314
223,7905.110335264481,7905.110335264481,7912.519634252957,7925.426545930908
224,7940.169105572845,7940.169105572845,7967.310120653923,7980.771146547412
225,7970.119728284888,7970.119728284888,7980.771146547412,7996.238079770116
226,8013.064359662092,8013.064359662092,8014.232845260589,8023.256989595865
227,8041.295201307657,8041.295201307657,8052.320473027344,8073.511353049481
228,8062.203598269241,8062.203598269241,8076.99136468733,8095.60922210849
229,8073.788996449803,8076.99136468733,8095.60922210849,8109.661883330337
230,8123.958420411087,8123.958420411087,8127.332305421657,8144.890739892203
231,8180.828756251353,8180.828756251353,8203.365725186828,8217.811683409678
232,8192.935954373586,8203.365725186828,8217.811683409678,8235.279764559387
233,8241.990106268304,8241.990106268304,8262.427143311705,8282.985190167097
234,8297.522149687136,8297.522149687136,8314.401503968682,8326.180095513535
235,8356.052703621848,8356.052703621848,8358.373176410392,8369.547528140798
236,8411.62185150018,8411.62185150018,8422.371967277164,8438.10855868563
237,8443.598606690155,8443.598606690155,8466.510845083896,8480.02620555501
238,8464.810339269354,8466.510845083896,8507.788345454619,8520.452295983214
239,8521.297877570354,8521.297877570354,8535.345738950899,8549.592716710778
240,8540.249990721806,8540.249990721806,8549.626946538696,8568.112421517835
241,8572.415572620232,8572.415572620232,8584.182463436213,8601.363215879117
242,8608.713474676746,8608.713474676746,8625.170790054734,8636.818048115341
243,8652.876259523237,8652.876259523237,8672.25254460948,8686.544890033665
244,8699.323023591314,8699.323023591314,8705.008861483826,8724.10993869919
245,8751.077355236868,8751.077355236868,8759.672642507177,8771.572616445193
246,8771.261767665965,8771.261767665965,8786.54848855813,8807.4912428839
247,8818.99840478668,8818.99840478668,8830.432327500956,8849.350771986128
248,8852.568047431885,8852.568047431885,8857.449889292615,8872.480579894793
249,8906.842779407742,8906.842779407742,8909.118687922391,8924.483296001308
250,8963.243897211407,8963.243897211407,8965.137780693793,8978.13483729074
251,9022.133175369543,9022.133175369543,9023.877158897914,9042.026394066292
252,9059.46040223877,9059.46040223877,9071.411320572572,9084.587205763897
253,9107.59619495973,9107.59619495973,9108.948782453253,9122.213722415085
254,9118.609888091374,9118.609888091374,9122.213722415085,9139.136886519824
255,9156.067666446006,9156.067666446006,9165.129129726547,9178.557750568369
256,9185.358707248675,9185.358707248675,9191.64072078797,9205.79907026241
