# file created by code in harbour_fns_1896438.jl
# file created on 2026-03-09 at 15:39:47
# parameter: seed = 1896634
# parameter: T = 30000.0
# parameter: lower_interarrival = 11.0
# parameter: upper_interarrival = 59.0
# parameter: mean_process_times = [11.0, 16.0]
# parameter: max_queue = [9223372036854775807, 4]
# parameter: time_units = hours
id,arrival_time,start_service_times,start_service_times,completion_time
1,0.0,0.0,6.768530947720065,25.83235473322539
2,38.12432734643599,38.12432734643599,57.04352458975936,71.25019840617341
3,60.12469065274581,60.12469065274581,71.25019840617341,78.80137850131815
4,110.48357505309261,110.48357505309261,117.42823127424462,133.59325889402805
5,151.96719370980122,151.96719370980122,160.34223184370725,174.96041131882905
6,166.40569724480204,166.40569724480204,211.3197234561504,224.45986690705206
7,215.34969197031182,215.34969197031182,227.19426696980855,244.66752187700956
8,266.2729359430566,266.2729359430566,267.0698719502255,286.21885024313593
9,311.90491685037483,311.90491685037483,314.07575095215515,327.28146048674034
10,352.36879796435755,352.36879796435755,359.422064039817,377.61685663362744
11,375.59245811147576,375.59245811147576,398.423699095288,414.21299221254014
12,413.0963629468484,413.0963629468484,419.98850960953905,437.56182205143233
13,450.5311827742664,450.5311827742664,471.3229978739477,492.22086106397063
14,465.690567568136,471.3229978739477,492.22086106397063,507.49167295114216
15,478.06985476797433,478.06985476797433,507.49167295114216,522.3071097047662
16,497.9701279926744,497.9701279926744,522.3071097047662,538.9904415247521
17,541.320100264467,541.320100264467,568.1571945739942,584.6243528607722
18,590.7532018454698,590.7532018454698,600.3391156418461,614.4800403122993
19,627.8879989412064,627.8879989412064,637.6723294589392,653.987306350239
20,646.4196743566778,646.4196743566778,655.3051985862555,672.0701640610371
21,697.1451030439914,697.1451030439914,702.9796228648527,716.0654389867916
22,740.8221944274484,740.8221944274484,741.8188719258695,756.2056125826551
23,766.1381028833805,766.1381028833805,777.692502291139,795.9896774955047
24,819.428323993066,819.428323993066,826.9987646325192,840.8708807472608
25,869.5884081487983,869.5884081487983,870.0615614357208,885.0702000262912
26,923.1451248143142,923.1451248143142,924.8276826597278,943.0021105723454
27,958.6203324108733,958.6203324108733,970.3183839683361,988.4597143674138
28,1003.218384305497,1003.218384305497,1003.9132845023695,1020.1902077231124
29,1028.0139224024344,1028.0139224024344,1034.6162693829724,1048.6508643746668
30,1056.5916804333815,1056.5916804333815,1059.2338626413473,1070.5935783259101
31,1099.7158112635768,1099.7158112635768,1106.9595638117323,1122.4839417165133
32,1113.698069920241,1113.698069920241,1122.4839417165133,1135.0476577193888
33,1147.0012245606144,1147.0012245606144,1163.9227520634847,1179.0144763614373
34,1171.8848069197252,1171.8848069197252,1179.0144763614373,1195.5396069816527
35,1200.3515593196178,1200.3515593196178,1213.3748222439353,1229.4984659821994
36,1233.683698462749,1233.683698462749,1244.2352676043806,1262.5233958213703
37,1277.796149156541,1277.796149156541,1282.9696589521216,1297.5158942921294
38,1326.096030381296,1326.096030381296,1328.8319042844316,1343.6858830193214
39,1371.86193617489,1371.86193617489,1404.3516080388058,1422.0448889489217
40,1390.8396478353675,1404.3516080388058,1422.0448889489217,1444.8035408199098
41,1441.39238321429,1441.39238321429,1449.3860667248277,1469.7909127503399
42,1480.5765725575118,1480.5765725575118,1488.8116528541216,1505.7422561104274
43,1494.8733355145487,1494.8733355145487,1505.7422561104274,1522.0482189424035
44,1530.84188899231,1530.84188899231,1536.323426138868,1551.1123091811564
45,1541.9983720480125,1541.9983720480125,1551.1123091811564,1565.950323916194
46,1582.1151902510392,1582.1151902510392,1606.8723077120246,1625.5821533513788
47,1631.8632087895674,1631.8632087895674,1637.3119416245174,1648.455971515226
48,1653.0354268653962,1653.0354268653962,1658.64443234799,1675.8193853039695
49,1676.9383883406374,1676.9383883406374,1704.9415981683862,1720.4684000901182
50,1704.6987341037327,1704.9415981683862,1720.4684000901182,1733.862757809229
51,1744.442547271724,1744.442547271724,1747.298667246528,1761.6001100620228
52,1779.852426873775,1779.852426873775,1792.7245024223184,1815.0191650833444
53,1802.6100302323061,1802.6100302323061,1815.0191650833444,1830.203413852618
54,1827.6080781449866,1827.6080781449866,1832.4380176816123,1845.5166002627245
55,1853.7775506218043,1853.7775506218043,1856.0947956084235,1870.8320439756042
56,1870.609194003358,1870.609194003358,1872.461454100427,1886.8326577677701
57,1901.1330757866272,1901.1330757866272,1912.6996082874973,1932.6055119662615
58,1940.7711733471867,1940.7711733471867,1951.5687331399547,1968.5766383861205
59,1952.0366190257268,1952.0366190257268,1968.5766383861205,1982.1510419279593
60,1978.4275362520304,1978.4275362520304,1996.4265765094176,2011.2316365650352
61,1991.0665487976385,1996.4265765094176,2011.2316365650352,2023.3850234621962
62,2032.0332305034485,2032.0332305034485,2033.7084325209364,2046.3088139352424
63,2065.5432373799217,2065.5432373799217,2088.0592777818306,2098.9450384928496
64,2101.363896829989,2101.363896829989,2125.656794382055,2139.2798329496895
65,2135.7781079228776,2135.7781079228776,2142.596000023306,2161.673190154754
66,2169.5241794105286,2169.5241794105286,2175.373643513451,2182.615272201768
67,2194.9806547514013,2194.9806547514013,2206.283455120886,2220.256071202395
68,2222.402678864255,2222.402678864255,2223.3634264121574,2232.402377719544
69,2244.020257790486,2244.020257790486,2251.1678707980604,2265.987809085613
70,2297.3851158080643,2297.3851158080643,2298.717649149752,2315.1987855267125
71,2339.5674689364087,2339.5674689364087,2348.7315940990165,2359.4916622344867
72,2370.418389688195,2370.418389688195,2383.0377594030947,2394.6615875046905
73,2413.223491086526,2413.223491086526,2421.3432610104032,2443.0618901226844
74,2451.391946806506,2451.391946806506,2464.5548858951324,2484.7114196098782
75,2493.4177896769847,2493.4177896769847,2498.9897411659367,2514.311924935694
76,2512.1595984818914,2512.1595984818914,2522.8991287170084,2534.2298091590105
77,2538.2464935043745,2538.2464935043745,2543.4521116824685,2554.6738420880833
78,2582.3670110677435,2582.3670110677435,2589.807176143823,2604.6596711418483
79,2609.0239227914353,2609.0239227914353,2614.249922407402,2632.610624051766
80,2663.087675619662,2663.087675619662,2689.1061912420555,2706.630951511889
81,2713.679983354269,2713.679983354269,2719.5388180475493,2737.5944067276923
82,2763.2550291716534,2763.2550291716534,2772.7409071767675,2795.0804373809465
83,2790.141891146729,2790.141891146729,2795.0804373809465,2814.0951864633025
84,2813.67620449749,2813.67620449749,2817.78450495134,2835.2024099936802
85,2863.0148639964245,2863.0148639964245,2873.2327738969507,2882.390078568223
86,2906.826802492575,2906.826802492575,2908.481377761509,2924.5535718560495
87,2957.2249680837663,2957.2249680837663,2957.2985256385555,2969.251768856406
88,3004.67843963824,3004.67843963824,3010.708118462417,3026.169684240663
89,3018.9637705453774,3018.9637705453774,3031.506209858361,3041.479235392944
90,3053.3306529526812,3053.3306529526812,3058.9330786146206,3073.175925991532
91,3111.2403775517046,3111.2403775517046,3120.149661670755,3131.2000819645395
92,3131.0340067154107,3131.0340067154107,3146.175567659648,3165.8995759473496
93,3142.306659857804,3146.175567659648,3165.8995759473496,3183.2136305951426
94,3154.7240929058335,3154.7240929058335,3183.2136305951426,3203.453509323415
95,3190.229306653495,3190.229306653495,3203.453509323415,3220.910000774017
96,3219.0153652814465,3219.0153652814465,3222.619616490294,3238.129442394667
97,3247.7163703896454,3247.7163703896454,3250.488779839177,3264.9873620511103
98,3289.3902987793763,3289.3902987793763,3298.440545564308,3312.3434160833685
99,3308.5804254092945,3308.5804254092945,3312.3434160833685,3325.490316081333
100,3344.2463360592865,3344.2463360592865,3351.362829677076,3367.0541582071455
101,3358.476622414763,3358.476622414763,3367.0541582071455,3379.5965258162328
102,3373.3822298086097,3373.3822298086097,3381.136133199897,3391.708675912869
103,3396.3352379217145,3396.3352379217145,3400.3471614267855,3420.291612283848
104,3430.1868174543733,3430.1868174543733,3453.092083442648,3467.541692882254
105,3487.8864385639044,3487.8864385639044,3500.1583007516188,3517.484911876557
106,3527.5336716360507,3527.5336716360507,3530.6095569119216,3547.7094175733764
107,3548.8295065841503,3548.8295065841503,3553.2563937074333,3566.6934973017615
108,3569.432176883489,3569.432176883489,3579.7444771866813,3591.379798585658
109,3596.14815727409,3596.14815727409,3599.770700889318,3620.4370802417257
110,3615.676126581875,3615.676126581875,3632.5071591828337,3650.8769606807573
111,3635.942185161346,3635.942185161346,3650.8769606807573,3667.382716707742
112,3650.7238288308167,3650.7238288308167,3667.382716707742,3680.022895149819
113,3684.079982759029,3684.079982759029,3708.8829503688885,3721.727299422661
114,3733.9750633174367,3733.9750633174367,3750.367257530222,3766.3662056743433
115,3779.9048598993636,3779.9048598993636,3780.021731714678,3794.9859172002716
116,3804.888445778981,3804.888445778981,3808.660721469631,3824.076408977969
117,3825.2343611563015,3825.2343611563015,3828.735509599711,3841.342012514265
118,3859.4709760896685,3859.4709760896685,3871.5470745264447,3894.039439578592
119,3878.847867222629,3878.847867222629,3894.039439578592,3911.186519929043
120,3895.3226583203714,3895.3226583203714,3911.186519929043,3922.3212370442293
121,3950.6615107254474,3950.6615107254474,3951.354594637267,3961.086644201044
122,3970.0004516164763,3970.0004516164763,4000.19133025041,4019.5568373219767
123,4010.2034263121664,4010.2034263121664,4019.5568373219767,4035.688309708598
124,4066.0067902672845,4066.0067902672845,4099.751503784915,4114.603350790802
125,4112.989469634098,4112.989469634098,4119.729934896229,4136.047465716263
126,4125.602205383237,4125.602205383237,4155.4256246293235,4171.480979757274
127,4136.913902959828,4155.4256246293235,4171.480979757274,4189.552099101247
128,4159.593168945298,4162.294932851851,4189.552099101247,4203.260709228297
129,4187.03221884461,4187.03221884461,4203.260709228297,4219.292609653229
130,4215.169672988034,4215.169672988034,4240.504690252733,4254.272033639133
131,4260.354368870894,4260.354368870894,4279.595276425315,4296.202420785519
132,4272.0442974767,4279.595276425315,4296.202420785519,4309.559574176468
133,4319.016825718459,4319.016825718459,4329.499151818929,4342.132042940171
134,4370.35677645439,4370.35677645439,4379.86299333768,4393.966752859553
135,4427.470904224246,4427.470904224246,4434.1741116447965,4454.7370740907
136,4478.219569017164,4478.219569017164,4511.378244331015,4524.773013148584
137,4514.101652701844,4514.101652701844,4543.988455788864,4557.712100158496
138,4562.146359027801,4562.146359027801,4569.183266485609,4584.493251563037
139,4595.921321514236,4595.921321514236,4613.556855085397,4635.832286638299
140,4620.876043368868,4620.876043368868,4635.832286638299,4655.2078828369795
141,4636.246871516537,4636.246871516537,4655.2078828369795,4672.569705808175
142,4651.6571184508175,4651.6571184508175,4672.569705808175,4688.918605288657
143,4666.824426865755,4669.290743197438,4688.918605288657,4700.700000121236
144,4694.17776189043,4694.17776189043,4718.267144471726,4735.224647390601
145,4712.460176770188,4718.267144471726,4735.224647390601,4751.8589667326505
146,4768.339169202747,4768.339169202747,4797.862505671546,4815.178697853314
147,4789.312850086579,4797.862505671546,4817.939443858532,4835.4391781542345
148,4821.586655534546,4821.586655534546,4835.4391781542345,4851.551874261421
149,4863.268349286754,4863.268349286754,4864.366444377586,4881.140195127789
150,4901.9464095805515,4901.9464095805515,4903.677063958922,4924.233220282356
151,4941.36068503112,4941.36068503112,4949.515461584918,4963.776040139551
152,4995.493641151775,4995.493641151775,5010.159785362442,5026.975315836808
153,5048.881858655375,5048.881858655375,5071.434588777228,5095.151067761609
154,5068.01606604659,5071.434588777228,5095.151067761609,5112.89525215583
155,5102.118656627193,5102.118656627193,5116.7724053618385,5139.348379282365
156,5133.0615378712155,5133.0615378712155,5139.348379282365,5160.067043317689
157,5150.484801020901,5150.484801020901,5171.478528004101,5188.189202576249
158,5206.0495174165435,5206.0495174165435,5217.016650432666,5226.87732361471
159,5240.438795736739,5240.438795736739,5241.390020382443,5256.837973731489
160,5286.605067306608,5286.605067306608,5307.146822966482,5316.977341549494
161,5329.203280963745,5329.203280963745,5339.6972850599295,5353.651512203203
162,5350.562280876028,5350.562280876028,5366.6007844804835,5384.389959327386
163,5393.228731880084,5393.228731880084,5414.819191837982,5431.132877892765
164,5431.037673026663,5431.037673026663,5435.181068488297,5453.061518486798
165,5481.322334423325,5481.322334423325,5498.587457730581,5515.426729734461
166,5512.038731774116,5512.038731774116,5516.512639125877,5531.362183325452
167,5526.230266685002,5526.230266685002,5531.362183325452,5545.108418450108
168,5580.278076752561,5580.278076752561,5603.4256568608425,5618.755839923889
169,5624.254529880011,5624.254529880011,5664.440126924304,5680.327361623176
170,5636.591428847247,5664.440126924304,5682.959913051018,5693.265911776642
171,5679.579212516043,5682.959913051018,5693.265911776642,5704.86007826667
172,5736.7867596483975,5736.7867596483975,5750.740730476773,5765.233347798098
173,5779.446960010183,5779.446960010183,5787.82734294593,5806.654528291022
174,5833.126059090856,5833.126059090856,5833.546999398597,5844.152489407234
175,5881.088818504199,5881.088818504199,5882.713829112145,5904.3219999645335
176,5894.112901543595,5894.112901543595,5904.3219999645335,5918.328983602853
177,5928.810818226167,5928.810818226167,5952.636735810858,5973.717865764585
178,5961.647637664017,5961.647637664017,5973.717865764585,5993.3564865181
179,5983.730411972175,5983.730411972175,6007.031225446844,6023.41542037491
180,6009.321924372045,6009.321924372045,6023.41542037491,6040.525505265084
181,6057.073750743488,6057.073750743488,6057.561218192449,6071.380076908586
182,6090.955800479301,6090.955800479301,6120.767770057923,6134.851795393152
183,6147.091501235117,6147.091501235117,6162.192102302744,6177.8580691908
184,6166.535317451779,6166.535317451779,6177.8580691908,6202.251298963315
185,6219.605830350869,6219.605830350869,6258.22475929759,6271.789314848193
186,6261.056513590297,6261.056513590297,6271.789314848193,6294.682963116107
187,6272.545988279759,6272.545988279759,6294.682963116107,6308.552360683242
188,6283.998318060433,6290.4159511884645,6308.552360683242,6324.563710313144
189,6308.649800664988,6308.649800664988,6324.563710313144,6337.880875743714
190,6340.705928479098,6340.705928479098,6345.647095473773,6360.662727811196
191,6378.239147324458,6378.239147324458,6380.526292246795,6399.096963856049
192,6427.249274153936,6427.249274153936,6435.4678517006,6446.524944901686
193,6483.593468381253,6483.593468381253,6484.186079003404,6499.308937860732
194,6508.00693663601,6508.00693663601,6527.232278817022,6544.334840274641
195,6530.999226936433,6530.999226936433,6544.334840274641,6563.324161971197
196,6583.900156651497,6583.900156651497,6584.970363876843,6602.347225515186
197,6614.827361727222,6614.827361727222,6616.212968679142,6630.649538498466
198,6662.749218515532,6662.749218515532,6679.4199363124835,6696.643951565584
199,6693.214482054117,6693.214482054117,6700.88554615947,6715.050516144636
200,6746.169574663517,6746.169574663517,6759.427081930406,6774.20682926065
201,6760.4809415468535,6760.4809415468535,6774.20682926065,6792.3446117546955
202,6791.357184225239,6791.357184225239,6800.6483401623,6815.117394189083
203,6844.010059226038,6844.010059226038,6869.441964162901,6888.545654037295
204,6856.946716421319,6869.441964162901,6888.545654037295,6899.565371138505
205,6887.321669252397,6887.321669252397,6899.565371138505,6915.259625127514
206,6921.419272512643,6921.419272512643,6930.658858259048,6949.538182318927
207,6964.926758972669,6964.926758972669,6975.320868658083,6989.7912362857005
208,7015.5112757854895,7015.5112757854895,7026.299947315692,7042.832701210591
209,7057.098579041363,7057.098579041363,7061.814218584778,7070.959366735161
210,7086.329604305785,7086.329604305785,7098.346790029473,7114.848074598108
211,7110.474286340124,7110.474286340124,7120.316006187229,7137.331045474661
212,7121.848807809143,7121.848807809143,7172.773778772114,7189.5745994895215
213,7166.154765270288,7172.773778772114,7189.5745994895215,7206.066305822211
214,7221.280469453009,7221.280469453009,7237.172700156492,7254.563898004559
215,7244.687130842949,7244.687130842949,7254.563898004559,7272.022015094002
216,7285.419170069404,7285.419170069404,7294.372206190365,7313.857207619922
217,7327.8812382099195,7327.8812382099195,7329.339684294547,7344.1240475426375
218,7341.63344510894,7341.63344510894,7346.280767359293,7362.561575803472
219,7390.201997055604,7390.201997055604,7391.957587458316,7406.01888284232
220,7413.090115850126,7413.090115850126,7436.609563754197,7448.563206370877
221,7460.912792866153,7460.912792866153,7476.713062817861,7487.497012244228
222,7507.652218088545,7507.652218088545,7525.562772124077,7537.618824184265
223,7554.693022779069,7554.693022779069,7573.573295079682,7587.915810835694
224,7598.29459423125,7598.29459423125,7598.299132282935,7615.523947832735
225,7640.586302519522,7640.586302519522,7645.6242393981065,7656.322468614439
226,7691.497827935007,7691.497827935007,7692.519450379135,7710.842547214565
227,7734.521433628594,7734.521433628594,7735.584583781616,7755.5440612362945
228,7756.640613874036,7756.640613874036,7759.476904275194,7769.5143266294
229,7773.975171141608,7773.975171141608,7783.276149175502,7801.978846673791
230,7831.418666265571,7831.418666265571,7844.7069299446,7860.962548640508
231,7853.915243900143,7853.915243900143,7860.962548640508,7877.285683649154
232,7867.972547711444,7867.972547711444,7896.936857625981,7910.802011569619
233,7884.922170720744,7896.936857625981,7910.802011569619,7923.896641876153
234,7925.997189949018,7925.997189949018,7931.2307893042935,7942.9281551391705
235,7968.267331748889,7968.267331748889,7994.7374440382255,8008.349489162955
236,8014.988781713949,8014.988781713949,8023.816255294986,8043.85705350136
237,8053.297874178965,8053.297874178965,8055.337800361921,8069.2390195633825
238,8094.515238100475,8094.515238100475,8117.927914010229,8130.588508651789
239,8141.772286540947,8141.772286540947,8168.37173496375,8182.552338599641
240,8176.765314222468,8176.765314222468,8188.897354001162,8205.956532272736
241,8211.365937899754,8211.365937899754,8221.119132687138,8237.588952826141
242,8236.21415633952,8236.21415633952,8237.588952826141,8248.385540309948
243,8284.749464064516,8284.749464064516,8298.940404629973,8317.959502221924
244,8298.483427633839,8298.940404629973,8317.959502221924,8334.392209471438
245,8313.282735356495,8313.282735356495,8334.392209471438,8345.12905042481
246,8370.173160799555,8370.173160799555,8371.635121650019,8386.981638627753
247,8388.92907622095,8388.92907622095,8389.026410285716,8399.381922986051
248,8401.550597132811,8401.550597132811,8408.155938510528,8428.599221789353
249,8441.792550045926,8441.792550045926,8441.921119774852,8454.556868010128
250,8467.999582055827,8467.999582055827,8474.726953381964,8490.68849761115
251,8491.950393414414,8491.950393414414,8499.754794822478,8516.002898473456
252,8536.46747257878,8536.46747257878,8545.458873740721,8566.428995320632
253,8575.772183785435,8575.772183785435,8591.505750093718,8608.038055944979
254,8587.419462615973,8591.505750093718,8608.038055944979,8622.935411754612
255,8634.090706904924,8634.090706904924,8668.04670751666,8681.629424245772
256,8650.097590307178,8668.04670751666,8681.629424245772,8696.918916192906
