# file created by code in harbour_fns_1896438.jl
# file created on 2026-03-09 at 15:39:39
# parameter: seed = 1896509
# parameter: T = 30000.0
# parameter: lower_interarrival = 11.0
# parameter: upper_interarrival = 59.0
# parameter: mean_process_times = [11.0, 16.0]
# parameter: max_queue = [9223372036854775807, 4]
# parameter: time_units = hours
id,arrival_time,start_service_times,start_service_times,completion_time
1,0.0,0.0,26.572709951520466,41.09656161507775
2,49.34575849676131,49.34575849676131,58.44948031161842,72.502847731203
3,100.83316158568962,100.83316158568962,117.40186818847364,134.6586086558402
4,146.82001549700436,146.82001549700436,164.16373678763938,182.72005762121512
5,165.56806836476835,165.56806836476835,182.72005762121512,196.29614168778383
6,200.8464850127375,200.8464850127375,201.79522828965906,218.7339375915073
7,218.82659344421398,218.82659344421398,225.61918606923214,245.72990846730275
8,239.03213065506205,239.03213065506205,245.72990846730275,258.9875556113547
9,296.1679532368761,296.1679532368761,314.27839787082536,328.2328628857954
10,330.66216808931017,330.66216808931017,344.5325232113144,360.11967806331023
11,352.993219798947,352.993219798947,360.11967806331023,371.5531099913467
12,380.4104236974209,380.4104236974209,384.4162733081342,395.72510454846145
13,394.8609899153647,394.8609899153647,399.9887966677584,416.816726590027
14,407.5914070177264,407.5914070177264,421.5912436736147,444.0785021582089
15,425.1294065361754,425.1294065361754,444.0785021582089,461.7438604123868
16,472.78887103459465,472.78887103459465,489.27901791669626,505.7899915556784
17,511.8326489390248,511.8326489390248,523.1203428180464,544.1046535663635
18,562.7332319258031,562.7332319258031,570.231500080082,586.8600010868054
19,613.0871733270784,613.0871733270784,615.6370465356687,636.0503219656001
20,635.6536854707507,635.6536854707507,636.7533858448628,654.4917527067244
21,657.5464984492464,657.5464984492464,660.4290417946347,673.3083631098167
22,674.9580733948114,674.9580733948114,684.7342356137304,699.748599034364
23,718.3932148982511,718.3932148982511,719.5156632712847,736.9360823178225
24,775.4181069328624,775.4181069328624,782.1939046950855,797.8421087522262
25,820.9251032055474,820.9251032055474,821.0471755702108,834.8495713207631
26,853.7848771603917,853.7848771603917,855.8698537519713,876.9783463425997
27,888.9179527325942,888.9179527325942,891.5156274574416,907.9968130669484
28,920.5215179422574,920.5215179422574,952.2415509632198,965.7124636503963
29,941.7313464877435,952.2415509632198,977.4229466316675,995.8520811189234
30,965.6336001158093,977.4229466316675,995.8520811189234,1011.6018866323519
31,1015.5277236032499,1015.5277236032499,1038.7180098201804,1054.6830064978678
32,1048.2247505601154,1048.2247505601154,1054.6830064978678,1072.703116997389
33,1094.1258011607647,1094.1258011607647,1114.9058145383588,1138.847906836369
34,1143.3023258618,1143.3023258618,1154.877923565449,1172.0610404857491
35,1157.808636571926,1157.808636571926,1186.8853578456462,1203.7065275893854
36,1197.3386343338932,1197.3386343338932,1203.7065275893854,1217.166454369147
37,1228.7367897555407,1228.7367897555407,1231.9379108673438,1246.8917207068955
38,1277.0433362153985,1277.0433362153985,1290.3865920745443,1302.1770365277248
39,1295.5649027658624,1295.5649027658624,1302.1770365277248,1314.1898933366504
40,1348.532675656399,1348.532675656399,1351.843121739807,1363.8124749016542
41,1385.87011027549,1385.87011027549,1387.660583334522,1406.2580120820642
42,1403.6713062039723,1403.6713062039723,1423.7690561519767,1438.6273540030743
43,1443.1134748280633,1443.1134748280633,1450.7300343642025,1469.7907282891967
44,1500.4587094380172,1500.4587094380172,1510.703455133407,1526.7484582436687
45,1545.9171206931794,1545.9171206931794,1549.994923977079,1563.4769925406815
46,1596.8498807119458,1596.8498807119458,1598.6656167045853,1614.428498519265
47,1625.4668972032598,1625.4668972032598,1629.2895652902944,1645.0925311361098
48,1640.7899716896097,1640.7899716896097,1645.0925311361098,1659.9564308995132
49,1677.621072524235,1677.621072524235,1679.9098615601254,1694.3462016315814
50,1731.8532139637136,1731.8532139637136,1734.927976185687,1748.1279828011864
51,1743.7149281990569,1743.7149281990569,1748.5534205721535,1771.6836810812908
52,1759.833439203231,1759.833439203231,1774.9580834959859,1787.9279509676953
53,1812.619180455268,1812.619180455268,1830.908104395262,1848.8347553611418
54,1846.132316669891,1846.132316669891,1848.8347553611418,1863.868455151093
55,1867.1296338452737,1867.1296338452737,1873.6819802116436,1887.5319029707464
56,1883.11225283366,1883.11225283366,1891.674302702144,1905.703536636365
57,1917.051641144295,1917.051641144295,1934.253747459743,1953.4593639322654
58,1943.155481175428,1943.155481175428,1959.7877547866917,1976.25869248665
59,1990.2202454993317,1990.2202454993317,2003.1430892818244,2021.046043882367
60,2043.365397205366,2043.365397205366,2044.0318431399096,2055.57588080334
61,2065.4642625183005,2065.4642625183005,2075.7377998166485,2087.6578179505
62,2088.6310954515748,2088.6310954515748,2088.8526076475505,2102.189061613643
63,2109.633276692887,2109.633276692887,2115.2268879169073,2136.0747447938998
64,2166.480571934167,2166.480571934167,2175.4928665448024,2191.081333646718
65,2204.941572165533,2204.941572165533,2224.8237050722237,2242.7584531979123
66,2258.512676810455,2258.512676810455,2305.269709005599,2324.911745507228
67,2289.778926667246,2305.269709005599,2324.911745507228,2344.118594255649
68,2348.6344523241696,2348.6344523241696,2354.7752195253483,2372.8105315575317
69,2371.7061407487217,2371.7061407487217,2375.4411575796335,2388.857606199909
70,2385.8290341162087,2385.8290341162087,2390.233538416356,2404.0283207427797
71,2424.9868788124263,2424.9868788124263,2427.8801450884353,2439.3758946703715
72,2477.4473314933516,2477.4473314933516,2478.276577698338,2496.48746210499
73,2497.4865236990768,2497.4865236990768,2510.2162447205574,2524.8300308598305
74,2538.732126080768,2538.732126080768,2543.7239432294887,2565.275214997609
75,2568.547282281539,2568.547282281539,2570.704340372456,2586.238910176868
76,2604.7492817966645,2604.7492817966645,2620.035550571917,2636.056800187691
77,2654.8903888184386,2654.8903888184386,2685.321034655416,2695.9950363767216
78,2700.4177707339536,2700.4177707339536,2701.719435321254,2721.76460040915
79,2744.3737420630873,2744.3737420630873,2750.37376980724,2768.608542928645
80,2772.193751308223,2772.193751308223,2773.8741969060784,2791.5769990622803
81,2783.4928876702284,2783.4928876702284,2791.5769990622803,2810.1825352767514
82,2819.4267437957,2819.4267437957,2825.478852499158,2837.7248559795703
83,2839.3891816589808,2839.3891816589808,2850.088236834415,2865.1653775778855
84,2885.487200102133,2885.487200102133,2888.4223486197375,2901.3186565905357
85,2942.4866904339256,2942.4866904339256,2942.8155537270773,2954.924498686441
86,2966.66441969963,2966.66441969963,2970.2024603715613,2986.387648076736
87,2984.594021091656,2984.594021091656,3016.452571451372,3027.8289986538857
88,3015.5848687358734,3016.452571451372,3027.8289986538857,3043.9364923175476
89,3069.5339016642433,3069.5339016642433,3070.139330698406,3086.0220488453783
90,3127.7887192245216,3127.7887192245216,3128.547767456444,3145.6452967445366
91,3151.6141331199424,3151.6141331199424,3152.9176427722896,3169.0114175176614
92,3167.6168905539294,3167.6168905539294,3173.6826608349093,3191.6346181263834
93,3188.047511608458,3188.047511608458,3197.222137260035,3212.1445262341654
94,3224.70333579322,3224.70333579322,3231.854572357457,3247.709358796497
95,3273.9651289581852,3273.9651289581852,3279.5561561859577,3290.2848597303628
96,3294.706529532647,3294.706529532647,3294.9364420868437,3315.90801173183
97,3308.734215233538,3308.734215233538,3315.90801173183,3332.30832479494
98,3336.3204770289694,3336.3204770289694,3337.3087350201276,3349.421212178405
99,3392.448710535976,3392.448710535976,3439.019268175905,3457.711601589052
100,3443.465696918878,3443.465696918878,3464.441119310766,3484.6754907070235
101,3478.418776900214,3478.418776900214,3487.649022612966,3502.352838918968
102,3515.0245142000904,3515.0245142000904,3521.3678155315106,3540.33331945371
103,3528.793295178028,3528.793295178028,3540.33331945371,3557.2556391417884
104,3543.6139647238438,3543.6139647238438,3557.2556391417884,3576.739059891461
105,3591.140126765411,3591.140126765411,3599.7494769297805,3617.863558638605
106,3617.3934851062195,3617.3934851062195,3620.6447447511323,3634.051773494123
107,3665.1871787722907,3665.1871787722907,3671.330689877958,3687.757667824867
108,3692.4115190171105,3692.4115190171105,3718.9816262954896,3736.073129947026
109,3706.9523731524687,3718.9816262954896,3736.073129947026,3747.560805726515
110,3753.7720462802104,3753.7720462802104,3759.007163521226,3775.0234714539056
111,3786.913868609986,3786.913868609986,3797.4173308255777,3816.3135114283195
112,3820.179469675856,3820.179469675856,3832.6798185352236,3847.812901986683
113,3852.5893388523823,3852.5893388523823,3856.679880726746,3875.56823668055
114,3905.3586780594283,3905.3586780594283,3930.9189834533336,3949.0194691886327
115,3963.682074871356,3963.682074871356,3974.315043273609,3986.4766423356023
116,4012.098416008649,4012.098416008649,4018.8296858093418,4029.0996149208027
117,4062.1088512291853,4062.1088512291853,4067.2519533780514,4080.1516430599872
118,4089.961463036559,4089.961463036559,4090.4911120375896,4109.098100255317
119,4148.336662430077,4148.336662430077,4164.313064789625,4178.668035505977
120,4176.5085831809565,4176.5085831809565,4181.566406829139,4193.870185752332
121,4198.778781421748,4198.778781421748,4215.346254737078,4233.666966340064
122,4219.544112918024,4219.544112918024,4233.666966340064,4245.547476864161
123,4235.2028317901295,4235.2028317901295,4251.087227808976,4267.955796675037
124,4263.9800457830415,4263.9800457830415,4268.522501983597,4290.2412207233465
125,4319.012254020641,4319.012254020641,4321.112853177141,4339.13040638971
126,4358.708326284027,4358.708326284027,4388.209101868917,4404.376124035477
127,4397.771513690527,4397.771513690527,4408.760870112697,4428.471757677161
128,4437.91723502865,4437.91723502865,4440.162320227003,4456.776538810404
129,4494.530202124189,4494.530202124189,4519.2931164329775,4535.285527865359
130,4541.197706044236,4541.197706044236,4544.874168981569,4560.025274934755
131,4576.37140977917,4576.37140977917,4580.171696658817,4596.04546863033
132,4621.7992429516835,4621.7992429516835,4622.864835056027,4640.47001138069
133,4635.582042157786,4635.582042157786,4675.9090880250105,4691.656566718795
134,4664.061426720403,4675.9090880250105,4691.656566718795,4706.053603964695
135,4682.359493600453,4682.797243895407,4723.51335800498,4744.554846929913
136,4740.777271566695,4740.777271566695,4783.345348197781,4798.7613528395395
137,4779.435810988914,4783.345348197781,4802.5967275167595,4822.103385677384
138,4803.819224758873,4803.819224758873,4822.103385677384,4837.752354285692
139,4838.784097652237,4838.784097652237,4858.593070470008,4875.70363551306
140,4864.814033344731,4864.814033344731,4875.70363551306,4895.143866851742
141,4891.694455800888,4891.694455800888,4896.93065488498,4913.972623384245
142,4905.149003162654,4905.149003162654,4913.972623384245,4933.307999165917
143,4923.068426407434,4923.068426407434,4942.521634713721,4953.756520714762
144,4937.060624875387,4942.521634713721,4959.682414055656,4972.758954051669
145,4963.813483949245,4963.813483949245,4972.758954051669,4990.238816825188
146,5006.646780120409,5006.646780120409,5021.074928575773,5038.749365991032
147,5030.475113964465,5030.475113964465,5038.749365991032,5055.273353661655
148,5041.891987528716,5041.891987528716,5055.917976089702,5077.952516605793
149,5097.274756943251,5097.274756943251,5115.721099844267,5134.072888843587
150,5146.506270863703,5146.506270863703,5165.003625612877,5182.184113780831
151,5165.763772943107,5165.763772943107,5182.184113780831,5193.97223136133
152,5195.696578945479,5195.696578945479,5198.435689964353,5212.143727098749
153,5232.32582547856,5232.32582547856,5234.318311525727,5252.537774052868
154,5246.375185591121,5246.375185591121,5252.537774052868,5265.588728966573
155,5288.661751652586,5288.661751652586,5295.781099206076,5311.036465436023
156,5314.134004042393,5314.134004042393,5338.517064680166,5359.2945949519235
157,5338.830693123802,5338.830693123802,5359.2945949519235,5380.662946496671
158,5380.235046644919,5380.235046644919,5382.895981086623,5406.030536595223
159,5394.397067307435,5394.397067307435,5406.030536595223,5422.376606439624
160,5423.7442004245395,5423.7442004245395,5430.607681625422,5445.732993730164
161,5437.927230405775,5437.927230405775,5445.732993730164,5464.607036844416
162,5468.861340211217,5468.861340211217,5510.216499190508,5526.0944892915095
163,5518.091671750659,5518.091671750659,5550.351569791799,5562.461789294668
164,5557.227178702829,5557.227178702829,5562.461789294668,5576.208366656016
165,5578.720761714963,5578.720761714963,5630.584067640652,5648.6642117808115
166,5614.358139946274,5630.584067640652,5648.6642117808115,5666.797523892629
167,5652.797709842237,5652.797709842237,5666.797523892629,5683.316695354878
168,5705.658384778856,5705.658384778856,5714.589104525756,5726.806257263815
169,5745.466565135863,5745.466565135863,5757.2459286877265,5775.673747106995
170,5800.67652790545,5800.67652790545,5808.14839115424,5824.190239676473
171,5833.3480147374685,5833.3480147374685,5834.094827029047,5849.622205712624
172,5848.9302396082985,5848.9302396082985,5866.085807117727,5884.679240163346
173,5892.079856002647,5892.079856002647,5892.482195611545,5911.864619300147
174,5942.028416074727,5942.028416074727,5946.166822785222,5969.946614638847
175,5971.995029229733,5971.995029229733,5977.413301273233,5994.932993007119
176,5996.380115483103,5996.380115483103,5998.4577114697695,6016.334054140394
177,6027.692970022554,6027.692970022554,6028.072613080615,6048.51875249564
178,6053.366622810534,6053.366622810534,6060.080101123939,6076.1877464702475
179,6074.609515425673,6074.609515425673,6079.959678674805,6100.147519788924
180,6113.933080541555,6113.933080541555,6118.307820213452,6132.510800079879
181,6133.311646831328,6133.311646831328,6136.289987616022,6153.934307746352
182,6178.281576122286,6178.281576122286,6184.413815467961,6203.167222746697
183,6189.818266087296,6189.818266087296,6203.167222746697,6226.00933268483
184,6244.716303492969,6244.716303492969,6248.851684036231,6264.8867338878035
185,6267.226899777442,6267.226899777442,6282.952051074597,6299.5429067669265
186,6308.991418995161,6308.991418995161,6309.844499727872,6330.894936088352
187,6343.970658346244,6343.970658346244,6354.676981081051,6367.0647670602575
188,6371.5834697782175,6371.5834697782175,6387.107023662061,6402.251058122112
189,6421.537506018983,6421.537506018983,6422.940314912096,6441.36455724429
190,6462.575149248937,6462.575149248937,6474.169537332512,6490.935343937506
191,6480.599860951015,6480.599860951015,6514.197818650258,6529.559997600673
192,6503.496618734818,6514.197818650258,6529.559997600673,6547.192681314252
193,6541.124499650095,6541.124499650095,6558.646773997248,6572.0946372151975
194,6561.920242126003,6561.920242126003,6572.0946372151975,6589.31407219243
195,6582.8476342929935,6582.8476342929935,6598.844957314975,6619.005573694578
196,6600.202284930253,6600.202284930253,6619.005573694578,6639.775910695531
197,6645.682754776309,6645.682754776309,6649.594675986909,6667.525780261002
198,6694.6212245773995,6694.6212245773995,6695.745980877181,6714.467070675466
199,6739.701086395567,6739.701086395567,6740.846193599015,6756.66942481182
200,6788.869503164222,6788.869503164222,6804.1949973909705,6819.668763897678
201,6812.094588059711,6812.094588059711,6819.668763897678,6837.695913593001
202,6832.52099378124,6832.52099378124,6837.695913593001,6858.501002242909
203,6852.474894017061,6852.474894017061,6858.501002242909,6876.705457803228
204,6865.5025747033405,6865.5025747033405,6876.705457803228,6894.317044605053
205,6913.512769965245,6913.512769965245,6926.673024874211,6949.064749866602
206,6939.182703527136,6939.182703527136,6949.064749866602,6967.573765535828
207,6983.88154929523,6983.88154929523,6986.024303277163,6998.236156783287
208,7034.525909287921,7034.525909287921,7050.259977197196,7069.768696604066
209,7068.401623184523,7068.401623184523,7082.531565526804,7095.8363660087825
210,7107.528163751061,7107.528163751061,7117.525925539441,7128.097004569277
211,7120.250537043709,7120.250537043709,7128.097004569277,7144.692236305169
212,7157.071135768769,7157.071135768769,7157.41968736893,7173.676315623832
213,7175.007208862424,7175.007208862424,7200.506547383812,7217.340497144163
214,7212.540439556929,7212.540439556929,7224.000020733967,7239.835748893169
215,7270.277619926428,7270.277619926428,7276.59100599219,7291.0662673506995
216,7287.825828972137,7287.825828972137,7307.0024834586075,7323.286442385143
217,7304.91428873987,7307.0024834586075,7323.286442385143,7341.418130451032
218,7343.9842950157245,7343.9842950157245,7354.759960876843,7364.203132018247
219,7390.423938515807,7390.423938515807,7411.587975513294,7428.780373254418
220,7430.612362362411,7430.612362362411,7433.591330862841,7447.600631337682
221,7455.9355154163795,7455.9355154163795,7461.192305643933,7478.125730426934
222,7514.333377669927,7514.333377669927,7523.93735032444,7538.321568919056
223,7528.385853757864,7528.385853757864,7538.321568919056,7553.555437769725
224,7571.644256989073,7571.644256989073,7586.732092731825,7599.181785992765
225,7613.8543093075305,7613.8543093075305,7630.259816456854,7647.792708046071
226,7638.086770300904,7638.086770300904,7658.860376955299,7672.273007420302
227,7649.678101477237,7658.860376955299,7693.4436753384025,7710.645199747114
228,7673.6193969627,7693.4436753384025,7710.645199747114,7726.723241536855
229,7687.408844955233,7700.54573517973,7726.723241536855,7743.6042888281045
230,7721.890990285655,7721.890990285655,7744.189627987998,7760.130612830517
231,7758.226552954752,7758.226552954752,7765.253906143138,7776.805984878602
232,7810.744647092447,7810.744647092447,7811.66513991457,7826.288803143169
233,7844.7887922355685,7844.7887922355685,7878.255786055853,7894.546410904385
234,7876.929551682115,7878.255786055853,7894.546410904385,7912.03620267245
235,7908.242116861429,7908.242116861429,7932.024255122434,7947.032848276621
236,7926.16796513238,7932.024255122434,7947.032848276621,7959.36539934176
237,7959.446092518892,7959.446092518892,7972.91036891514,7985.662802725845
238,7981.997124208188,7981.997124208188,7986.389534206467,8002.400813150707
239,8011.510056086355,8011.510056086355,8014.355992381137,8028.8741967935375
240,8054.997933820362,8054.997933820362,8072.753564250441,8092.813202731906
241,8072.807509840052,8072.807509840052,8094.210894499158,8110.310621500477
242,8123.073477495796,8123.073477495796,8131.593298574848,8150.467599637426
243,8166.425527935614,8166.425527935614,8200.017530153518,8213.674999944518
244,8187.973039240027,8200.017530153518,8213.674999944518,8230.597993685964
245,8214.552581645667,8214.552581645667,8230.597993685964,8255.129227638048
246,8252.29142030007,8252.29142030007,8269.029236321932,8286.856198673304
247,8295.562382244205,8295.562382244205,8308.566369764198,8322.612965480706
248,8313.434149543295,8313.434149543295,8338.84217031514,8362.67099260111
249,8363.625071820554,8363.625071820554,8366.951769509698,8380.898246364215
250,8406.91190716695,8406.91190716695,8419.082354917275,8430.914267357128
251,8462.386872426874,8462.386872426874,8462.403379982316,8476.948133447895
252,8504.292660903031,8504.292660903031,8505.05330401212,8521.477382190287
253,8535.094439671828,8535.094439671828,8538.173996850419,8556.858044663426
254,8551.01570154251,8551.01570154251,8588.375403940458,8603.944747691006
255,8580.890816224952,8588.375403940458,8603.944747691006,8616.45001108797
256,8622.480160605424,8622.480160605424,8623.545384225763,8638.736277748112
