# file created by code in harbour_fns_1896438.jl
# file created on 2026-03-09 at 15:39:37
# parameter: seed = 1896482
# parameter: T = 30000.0
# parameter: lower_interarrival = 11.0
# parameter: upper_interarrival = 59.0
# parameter: mean_process_times = [11.0, 16.0]
# parameter: max_queue = [9223372036854775807, 4]
# parameter: time_units = hours
id,arrival_time,start_service_times,start_service_times,completion_time
1,0.0,0.0,13.077874723145284,29.041250886936663
2,23.737587625231583,23.737587625231583,29.041250886936663,49.1300826634524
3,80.05819130720548,80.05819130720548,93.28404323882387,109.25416875759497
4,137.7726866328893,137.7726866328893,149.23716136311242,168.9371321845186
5,167.35385729024125,167.35385729024125,241.6604346524187,256.1701970669386
6,206.74969517061157,241.6604346524187,256.1701970669386,274.00722319546696
7,240.07997502555043,249.66450995037852,274.00722319546696,289.82158928708657
8,258.6678840175157,265.6657599247011,289.82158928708657,302.47424107570566
9,270.98765269197634,270.98765269197634,302.47424107570566,315.5174726754748
10,309.8723050754815,309.8723050754815,319.128604855695,340.32982796192846
11,354.2825533626223,354.2825533626223,367.55997695011797,382.5237103820209
12,407.9370298587261,407.9370298587261,423.02440461265655,434.9384280834207
13,439.6949972970234,439.6949972970234,440.37225561572814,450.32010383848984
14,479.9327573780194,479.9327573780194,485.52341147763394,500.179523793148
15,504.345031701848,504.345031701848,505.8077110664868,516.1212181184533
16,544.7012911250796,544.7012911250796,563.4901091157798,580.3526203518481
17,569.7881544018722,569.7881544018722,580.3526203518481,600.1211064409048
18,626.765713372298,626.765713372298,651.6880326727774,665.2083901176946
19,676.5189899435696,676.5189899435696,699.0127000597574,713.2222358533567
20,725.3010268205334,725.3010268205334,729.4998120481641,747.2644204219863
21,752.8699948059244,752.8699948059244,760.0539383271399,777.0804481417117
22,764.6082182009048,764.6082182009048,780.2431252812249,796.95941320926
23,798.9011140426061,798.9011140426061,827.0399015417963,842.26492872033
24,812.9566949970015,827.0399015417963,842.26492872033,860.7753465833555
25,838.1264953384656,838.1264953384656,860.7753465833555,880.7314619969478
26,880.7790709062663,880.7790709062663,904.4372867632129,920.9261053342923
27,927.3582459612078,927.3582459612078,930.5083217381178,947.2199704930251
28,951.9310020469195,951.9310020469195,995.5141386464022,1012.8725542549931
29,963.5343173292921,995.5141386464022,1013.015462107755,1035.1110606498441
30,1008.2712314951258,1013.015462107755,1035.1110606498441,1051.079259277886
31,1028.7514268470447,1028.7514268470447,1051.079259277886,1064.9046161955064
32,1059.1885452241477,1059.1885452241477,1082.2681578158142,1098.1314999026347
33,1073.6347413522167,1082.2681578158142,1108.1977589925368,1124.5839189083874
34,1121.9951904242998,1121.9951904242998,1135.6379197483693,1152.6061891761995
35,1171.502045729436,1171.502045729436,1173.947713802682,1186.8930674728886
36,1197.778780953072,1197.778780953072,1201.8502929104402,1217.1543908978485
37,1224.1266485959363,1224.1266485959363,1233.2657663170628,1252.1782073723182
38,1265.5226347465764,1265.5226347465764,1273.1987057935298,1281.8173035036316
39,1320.7834240205243,1320.7834240205243,1327.3455302613106,1339.813390234983
40,1339.7511534239795,1339.7511534239795,1339.8214485300293,1357.5231966541583
41,1376.881021789759,1376.881021789759,1379.6297706425069,1391.8544341137194
42,1388.5713219445736,1388.5713219445736,1399.362454109705,1414.748695015329
43,1403.09593301778,1403.09593301778,1414.748695015329,1429.1000743986006
44,1424.0306020176124,1424.0306020176124,1429.1000743986006,1446.856599582046
45,1477.1199789247823,1477.1199789247823,1485.4482039133916,1504.6652129343845
46,1499.265398156363,1499.265398156363,1504.6652129343845,1518.6665348182223
47,1554.2463211176969,1554.2463211176969,1565.217368463007,1578.9832671878596
48,1600.5642976291974,1600.5642976291974,1611.9134972227607,1626.4181596542237
49,1625.1349912668607,1625.1349912668607,1656.8050583687586,1676.5660189832001
50,1680.809422031652,1680.809422031652,1681.6642291930066,1700.4148865905358
51,1698.9387504187152,1698.9387504187152,1703.9800202824315,1720.030801083802
52,1717.4636731503035,1717.4636731503035,1721.407679868318,1736.9606636353346
53,1750.0865434862305,1750.0865434862305,1750.3426604851265,1767.4770789795136
54,1767.1478639795382,1767.1478639795382,1776.2328546945118,1790.6307493977845
55,1817.2022485164473,1817.2022485164473,1819.7891372392826,1833.5154631092162
56,1842.6894685334055,1842.6894685334055,1847.4833384987162,1867.7111241534985
57,1854.6497969058332,1854.6497969058332,1882.74398156957,1896.2023987966675
58,1900.8733358633144,1900.8733358633144,1912.661611894721,1929.9741958866784
59,1925.70337077205,1925.70337077205,1929.9741958866784,1950.561928299097
60,1974.5881816899553,1974.5881816899553,1983.6914406458818,2003.7850623076076
61,2000.4524517631503,2000.4524517631503,2003.7850623076076,2014.303180539919
62,2058.4979785293713,2058.4979785293713,2071.6503759319166,2083.4978615339023
63,2112.644736873874,2112.644736873874,2113.216799656098,2130.850614150197
64,2125.9231531741534,2125.9231531741534,2130.850614150197,2148.382890143013
65,2151.8022810954117,2151.8022810954117,2164.2273793958843,2180.2469377532384
66,2164.977791900996,2164.977791900996,2180.2469377532384,2195.3844327133766
67,2199.7279365412714,2199.7279365412714,2207.396484818351,2221.765513322031
68,2238.7690634340665,2238.7690634340665,2266.8958062443057,2282.005136527384
69,2271.441150540415,2271.441150540415,2282.005136527384,2297.5565753828255
70,2312.4789595244065,2312.4789595244065,2314.5245906077944,2331.0346514088405
71,2335.3211190538177,2335.3211190538177,2344.1147679078235,2355.784854097796
72,2390.4568061391424,2390.4568061391424,2406.2310128956883,2421.3073676884137
73,2440.6217567091876,2440.6217567091876,2451.6664738055765,2470.9134905854935
74,2472.67207655267,2472.67207655267,2504.8697138263824,2519.0860859270783
75,2519.3545223906535,2519.3545223906535,2522.9925303284354,2539.598850924268
76,2549.7328495353067,2549.7328495353067,2563.8300862009673,2585.1078395787367
77,2600.785534667878,2600.785534667878,2623.416167773161,2643.821683730351
78,2640.859990143,2640.859990143,2647.4731927468074,2661.3814100614095
79,2694.6621488786923,2694.6621488786923,2694.9051626054716,2705.2828965610393
80,2726.755391536177,2726.755391536177,2760.9387268001965,2776.2056642322036
81,2744.985303661925,2760.9387268001965,2776.2056642322036,2789.103772856013
82,2765.0809342398234,2765.0809342398234,2789.103772856013,2803.1412520660047
83,2807.0630487850176,2807.0630487850176,2814.8510493948324,2831.2707156488696
84,2833.3677599758307,2833.3677599758307,2840.075387291129,2855.380686770103
85,2879.4466485739713,2879.4466485739713,2880.8116365873807,2892.137590990847
86,2932.510377372382,2932.510377372382,2945.3730054962534,2958.6785997548623
87,2964.7501761690733,2964.7501761690733,2975.5090767862876,2992.486571760513
88,3002.0212564566104,3002.0212564566104,3010.3011804322928,3023.2331639338768
89,3055.94319477819,3055.94319477819,3079.992239035721,3103.0645040457534
90,3106.813422941592,3106.813422941592,3118.123023789747,3137.4531500070116
91,3128.3649790835393,3128.3649790835393,3139.5870145272725,3154.34966904823
92,3158.0577654024373,3158.0577654024373,3162.7072178265676,3177.049720844919
93,3204.302549077408,3204.302549077408,3205.44517059164,3221.993220021027
94,3257.8866742583587,3257.8866742583587,3279.1269318356426,3293.5572206361976
95,3278.815409094301,3279.1269318356426,3293.5572206361976,3307.802654483606
96,3319.6082446772266,3319.6082446772266,3319.944787669185,3337.1983723138424
97,3376.9167342773126,3376.9167342773126,3380.3822440005165,3395.689214016467
98,3399.6846492631657,3399.6846492631657,3401.985256781725,3415.05469091891
99,3433.1246417908615,3433.1246417908615,3439.145412111123,3457.9165320313946
100,3470.526366548199,3470.526366548199,3478.407739705857,3497.2579349541093
101,3507.182235487441,3507.182235487441,3524.7567651299883,3542.683169778992
102,3520.957291838633,3524.7567651299883,3542.683169778992,3564.234120922376
103,3554.4485183107345,3554.4485183107345,3564.234120922376,3576.6450841061987
104,3595.8190084151856,3595.8190084151856,3601.446858795671,3615.69927468981
105,3626.0946939208006,3626.0946939208006,3626.7910237609563,3639.6642775035816
106,3641.3852450492686,3641.3852450492686,3649.120148603786,3667.1552967912053
107,3681.001148676363,3681.001148676363,3705.6281190286063,3721.3680004171138
108,3703.2955195686905,3705.6281190286063,3721.3680004171138,3743.078683852775
109,3752.686140521734,3752.686140521734,3755.6628957757443,3775.2782442909347
110,3777.9062977329068,3777.9062977329068,3782.9593005731685,3804.0503554349216
111,3809.1652190546884,3809.1652190546884,3829.642737282131,3846.4229699999355
112,3839.7444636229284,3839.7444636229284,3855.669491825699,3871.8638059445575
113,3859.839819998741,3859.839819998741,3872.713510661678,3885.564132124087
114,3890.062190592,3890.062190592,3901.797083016289,3920.0677383285565
115,3926.982175031649,3926.982175031649,3979.615822879039,3998.088060831714
116,3951.5639656093854,3979.615822879039,3998.088060831714,4010.579203006391
117,3989.681781882337,3989.8942218042853,4010.579203006391,4023.8108405799194
118,4040.339753389008,4040.339753389008,4044.8179119534434,4051.106720274786
119,4067.5040935663815,4067.5040935663815,4082.7807202455506,4100.749430353905
120,4079.9866777401417,4082.7807202455506,4100.749430353905,4122.0482139582555
121,4096.0931784960985,4096.0931784960985,4122.0482139582555,4137.229684595705
122,4125.044547437405,4125.044547437405,4137.229684595705,4151.250197529116
123,4173.048546339515,4173.048546339515,4177.692930224628,4194.304001202284
124,4231.6685337902,4231.6685337902,4235.088176655454,4244.840999432361
125,4244.007251519718,4244.007251519718,4254.741073292279,4270.674133547447
126,4272.069395638886,4272.069395638886,4284.0819225664645,4300.802818577437
127,4317.911392398778,4317.911392398778,4320.8085011284575,4336.687966663463
128,4364.975877967447,4364.975877967447,4369.410174999839,4384.383008237229
129,4376.394515533446,4376.394515533446,4394.049078431663,4410.05546264638
130,4412.7253348755785,4412.7253348755785,4419.1109451590255,4436.370107894253
131,4464.007413007654,4464.007413007654,4466.846249485861,4480.374984328085
132,4520.736393287052,4520.736393287052,4523.739245482811,4538.852696033562
133,4564.747421132032,4564.747421132032,4571.360284716599,4584.273502708488
134,4610.920993064379,4610.920993064379,4614.3525905658935,4632.039121046175
135,4624.079881338783,4624.079881338783,4646.399834071513,4663.207363561401
136,4652.15315099647,4652.15315099647,4663.207363561401,4675.181639410562
137,4673.190893800978,4673.190893800978,4679.280813701938,4689.143217579841
138,4702.636655346062,4702.636655346062,4747.165110078079,4764.308683381147
139,4740.663945124272,4747.165110078079,4764.308683381147,4781.838436932298
140,4785.869838665532,4785.869838665532,4788.19800338552,4801.549869304212
141,4812.210632279562,4812.210632279562,4819.192159750969,4840.833833067136
142,4869.491149930638,4869.491149930638,4871.304496268704,4884.2911347535
143,4904.7783278139,4904.7783278139,4916.976473363373,4935.565580159374
144,4922.896417087787,4922.896417087787,4942.465032807751,4958.762547316512
145,4977.668547709089,4977.668547709089,4991.842444323826,5009.749666204139
146,5002.072551361865,5002.072551361865,5009.749666204139,5025.750042213492
147,5050.272902806413,5050.272902806413,5070.5397151717725,5088.347643349744
148,5107.879917357965,5107.879917357965,5122.522830098327,5142.902046412617
149,5156.553707926527,5156.553707926527,5168.951149411769,5183.3869442154255
150,5171.04569488353,5171.04569488353,5197.513269946879,5212.22320073804
151,5216.899041423277,5216.899041423277,5219.10092926495,5231.469049243369
152,5233.656566319899,5233.656566319899,5238.6472592500095,5254.564752646512
153,5274.054994172943,5274.054994172943,5278.284303303472,5299.047161763291
154,5307.403552952534,5307.403552952534,5317.238982869264,5335.501249087656
155,5341.032272793271,5341.032272793271,5359.753443456156,5378.584830549717
156,5392.986743474383,5392.986743474383,5394.922375055381,5408.267354312904
157,5450.419667308083,5450.419667308083,5460.0820069371475,5475.0900578072615
158,5496.425900800236,5496.425900800236,5497.466426717416,5513.395665972068
159,5522.887100499915,5522.887100499915,5536.721601764365,5554.226843608865
160,5562.599266719542,5562.599266719542,5564.449748495971,5575.433366291489
161,5589.457598212777,5589.457598212777,5609.520274531249,5627.0227525415685
162,5612.986641119141,5612.986641119141,5627.0227525415685,5647.4987420336065
163,5631.452688234578,5631.452688234578,5647.4987420336065,5664.20182701395
164,5679.206493099579,5679.206493099579,5681.257641238853,5698.099613034944
165,5690.440136283381,5690.440136283381,5698.099613034944,5717.120057729541
166,5748.218293385121,5748.218293385121,5752.3054060758,5766.866963097416
167,5786.289875212273,5786.289875212273,5802.873091766683,5816.747789181961
168,5804.856838552298,5804.856838552298,5816.747789181961,5830.035721262425
169,5862.858573878161,5862.858573878161,5894.409984481691,5913.787445867081
170,5892.7465599392235,5894.409984481691,5913.787445867081,5929.661896659934
171,5920.430960791512,5920.430960791512,5947.428530504832,5965.206542726177
172,5970.852110170403,5970.852110170403,5973.896199875309,5990.373759456986
173,6022.644410692425,6022.644410692425,6027.493524618841,6043.423119362447
174,6055.599421631691,6055.599421631691,6074.508153077411,6087.436434495027
175,6082.036902956697,6082.036902956697,6087.436434495027,6108.025906869646
176,6123.21079569914,6123.21079569914,6168.535751164912,6181.693360201231
177,6157.532510955616,6168.535751164912,6181.693360201231,6195.9060760767825
178,6209.691740139079,6209.691740139079,6214.939770568315,6232.360281354339
179,6256.835652315315,6256.835652315315,6268.585426553185,6285.548344012332
180,6314.241077323951,6314.241077323951,6321.795655538829,6339.1074922595
181,6360.795414019283,6360.795414019283,6362.057315244925,6380.200649684633
182,6400.528492419116,6400.528492419116,6417.728653652463,6435.028130605832
183,6458.202842715869,6458.202842715869,6463.870099370302,6479.022123335299
184,6475.0110965681015,6475.0110965681015,6490.874144832076,6505.162080101202
185,6499.407471361791,6499.407471361791,6505.162080101202,6525.804955997198
186,6555.613915559719,6555.613915559719,6584.753420142673,6595.250973229661
187,6590.211668041365,6590.211668041365,6609.59927576261,6625.23133327424
188,6627.654896758663,6627.654896758663,6657.536450214036,6673.99073802334
189,6676.294823788756,6676.294823788756,6680.4713289781985,6699.609002133567
190,6695.253415448497,6695.253415448497,6707.944815168746,6721.496613403763
191,6710.145577765921,6710.145577765921,6721.496613403763,6733.77570856455
192,6736.499363730991,6736.499363730991,6739.300908262629,6756.249266994595
193,6777.101327191353,6777.101327191353,6788.391374016619,6803.674087752482
194,6794.433152146656,6794.433152146656,6803.674087752482,6819.572323191456
195,6817.610722317189,6817.610722317189,6834.393667896668,6852.791160937001
196,6854.149114678091,6854.149114678091,6863.3208300447495,6877.924706740277
197,6898.709840872475,6898.709840872475,6929.728129906503,6947.95101711649
198,6918.427412569623,6929.728129906503,6947.95101711649,6969.498189970751
199,6935.256613328407,6939.193953678769,6969.498189970751,6983.882521364712
200,6973.940363496831,6973.940363496831,6983.882521364712,7003.594133884514
201,6991.204307594543,6991.204307594543,7013.993044499731,7031.3261874034115
202,7004.492339952926,7013.993044499731,7036.425666553065,7048.288220367934
203,7028.048932382997,7036.425666553065,7066.5537754549805,7083.659487692893
204,7080.631213267217,7080.631213267217,7083.8135152457535,7092.345585550272
205,7109.124862666965,7109.124862666965,7133.165980483717,7150.728256248229
206,7147.622179822694,7147.622179822694,7150.728256248229,7160.391522683169
207,7188.518183947337,7188.518183947337,7210.921384990968,7227.427486875189
208,7243.782916721311,7243.782916721311,7247.541748691602,7264.554246156777
209,7273.62208471109,7273.62208471109,7286.052957475042,7304.277932148946
210,7327.405472075145,7327.405472075145,7332.1627591789775,7349.789751419469
211,7369.268459712132,7369.268459712132,7386.940630834364,7399.118083794027
212,7402.449575641465,7402.449575641465,7402.919976611836,7415.852556150412
213,7446.804999544868,7446.804999544868,7449.386513365231,7469.660238338805
214,7496.231022999944,7496.231022999944,7499.844785482528,7515.353557324785
215,7521.6363324635295,7521.6363324635295,7523.40624231956,7539.63932546926
216,7576.8796085881595,7576.8796085881595,7588.0901563487,7602.26332134346
217,7615.044812705011,7615.044812705011,7638.240800233499,7651.216511396605
218,7671.78839512763,7671.78839512763,7685.488918841101,7702.34024865532
219,7707.625202781171,7707.625202781171,7713.991781762985,7732.271760307483
220,7746.8663054528015,7746.8663054528015,7751.910930958665,7770.807248207079
221,7785.8953226966005,7785.8953226966005,7803.890945937826,7816.481638196643
222,7817.10953574841,7817.10953574841,7831.744573091404,7841.093114788699
223,7860.831257121448,7860.831257121448,7871.02022036071,7885.058008045997
224,7912.138081064351,7912.138081064351,7934.735776725722,7952.670112223522
225,7954.733787920966,7954.733787920966,7969.21715255086,7981.09053548179
226,7993.173322427797,7993.173322427797,8009.491952790746,8027.083601923213
227,8046.07654960146,8046.07654960146,8112.954358872859,8130.302563675181
228,8058.480216338958,8112.954358872859,8130.302563675181,8143.022084637356
229,8106.3847621277355,8113.812353446788,8143.022084637356,8159.626201081304
230,8137.728188696052,8137.728188696052,8162.026129643303,8177.40938696514
231,8150.708050906836,8162.026129643303,8177.40938696514,8191.776728098512
232,8186.802258431498,8186.802258431498,8221.410714455185,8240.074097499224
233,8203.357474950508,8221.410714455185,8240.074097499224,8254.053782938287
234,8260.140260814267,8260.140260814267,8271.315258128801,8283.978391385344
235,8271.793512483782,8271.793512483782,8284.77116770359,8301.19517954527
236,8315.809323225194,8315.809323225194,8340.06701183213,8353.63226572476
237,8331.780652803027,8340.06701183213,8353.63226572476,8373.846913884352
238,8379.062874144758,8379.062874144758,8379.548887287345,8395.899657620046
239,8426.473409931139,8426.473409931139,8450.029121173106,8465.715701954387
240,8478.265142004891,8478.265142004891,8487.020827196744,8502.734260018542
241,8524.219854352852,8524.219854352852,8524.581752293794,8539.26961770944
242,8555.702479247511,8555.702479247511,8564.48252050348,8579.092006849862
243,8577.99628869368,8577.99628869368,8580.22120143792,8596.052880009136
244,8611.48320875936,8611.48320875936,8621.825893340918,8640.240432109409
245,8649.720309126684,8649.720309126684,8650.192679505626,8661.192305766743
246,8703.018960030762,8703.018960030762,8703.270857998368,8715.24704273631
247,8758.66422445589,8758.66422445589,8762.763782468792,8772.351246725266
248,8797.222546300063,8797.222546300063,8800.815459670479,8820.853219250766
249,8850.041592959335,8850.041592959335,8850.05958749839,8867.578561696135
250,8875.552088512635,8875.552088512635,8899.60032326762,8917.96934596065
251,8890.475321231492,8899.60032326762,8917.96934596065,8931.239922080507
252,8909.660041104358,8909.660041104358,8932.116439268984,8947.426459942788
253,8922.74162883376,8932.116439268984,8947.426459942788,8968.321931021517
254,8964.358194169008,8964.358194169008,8974.581397446122,8984.961249447784
255,9019.663429815884,9019.663429815884,9023.966797840594,9037.381143952838
256,9063.406503163553,9063.406503163553,9083.919842355683,9097.75214710152
