# file created by code in harbour_fns_1896438.jl
# file created on 2026-03-09 at 15:39:39
# parameter: seed = 1896513
# parameter: T = 30000.0
# parameter: lower_interarrival = 11.0
# parameter: upper_interarrival = 59.0
# parameter: mean_process_times = [11.0, 16.0]
# parameter: max_queue = [9223372036854775807, 4]
# parameter: time_units = hours
id,arrival_time,start_service_times,start_service_times,completion_time
1,0.0,0.0,4.731234474728186,22.685467232346003
2,28.2506726999509,28.2506726999509,38.56212555868588,51.34664024816314
3,43.46649051583541,43.46649051583541,51.34664024816314,60.26246018000344
4,93.0492494027992,93.0492494027992,97.54817261000994,113.5838968318789
5,138.6368403758094,138.6368403758094,166.87567167482405,180.25265483617576
6,164.41637980416357,166.87567167482405,200.62087834091543,216.24482942039813
7,192.63428780155851,200.62087834091543,216.24482942039813,232.3525986821223
8,230.6769883518376,230.6769883518376,232.3525986821223,247.68223224765538
9,242.51668800006777,242.51668800006777,247.68223224765538,265.72841664081113
10,276.0499321728714,276.0499321728714,277.2645703898246,297.8975603150797
11,330.66554735250764,330.66554735250764,350.4062336404673,363.3956652555778
12,387.9735256809623,387.9735256809623,396.9845140777894,414.3647226065273
13,435.4155880144093,435.4155880144093,436.629344123311,454.9028708581976
14,468.9597320828992,468.9597320828992,469.8958106297877,491.0534734486888
15,487.2570982968475,487.2570982968475,491.0534734486888,508.7871674379753
16,512.8874079915909,512.8874079915909,516.7869082313214,531.2160601132101
17,555.7766547297451,555.7766547297451,563.7708580960006,579.9793858371213
18,595.1102783115387,595.1102783115387,607.3248507155406,620.9470966195126
19,613.5532070950367,613.5532070950367,629.3875848222395,643.1500800205924
20,642.9026044634065,642.9026044634065,652.2301801698859,669.6620323617809
21,699.5100611445845,699.5100611445845,759.6433943025129,775.7423511100072
22,717.762132616162,759.6433943025129,786.4663600327887,799.5069464394447
23,746.3890582230413,786.4663600327887,820.1071620252475,830.0891752689328
24,776.9563842689607,820.1071620252475,830.0891752689328,845.7019910867849
25,835.0137668339745,835.0137668339745,847.0188413375341,861.7246419777895
26,880.4398429555603,880.4398429555603,887.9621379749084,898.8228379234164
27,892.5438667525423,892.5438667525423,898.8228379234164,912.7336710998699
28,923.4112555361241,923.4112555361241,934.5183316991145,951.6163445298466
29,981.5998267872567,981.5998267872567,986.2063107114167,1000.5490452117157
30,1022.5121706813621,1022.5121706813621,1030.5664085538826,1050.8369886877167
31,1061.5187179603618,1061.5187179603618,1084.2200612939084,1095.6389460908242
32,1086.7048723316207,1086.7048723316207,1095.6389460908242,1111.2463708826729
33,1114.1547902615412,1114.1547902615412,1131.3386427890646,1145.7907457480596
34,1138.361940807635,1138.361940807635,1145.7907457480596,1161.6108503696012
35,1163.6829856518334,1163.6829856518334,1165.3396806001747,1182.9110265010315
36,1203.398651937998,1203.398651937998,1211.8716697796588,1220.9887202936222
37,1230.211664808354,1230.211664808354,1240.0560670390225,1254.5491080609677
38,1263.5419979806886,1263.5419979806886,1266.7737896310537,1283.1050158402088
39,1303.2873833869328,1303.2873833869328,1319.218932637924,1331.4515821049752
40,1347.4874743181076,1347.4874743181076,1352.5122386370788,1363.301573925418
41,1365.5901459949293,1365.5901459949293,1369.8195771777555,1387.9736529511147
42,1412.8755977126832,1412.8755977126832,1423.3987997086929,1438.8001707997323
43,1462.6491133554284,1462.6491133554284,1466.1832107357477,1482.606573791166
44,1480.1422941691521,1480.1422941691521,1482.606573791166,1496.094166009305
45,1537.9430437219316,1537.9430437219316,1566.0361073212862,1585.8304704138711
46,1570.0976936025943,1570.0976936025943,1585.8304704138711,1604.605626301298
47,1610.526902159419,1610.526902159419,1634.5454809593052,1649.9404354933545
48,1666.7411492406322,1666.7411492406322,1667.7724962045404,1686.8167974291575
49,1678.9665496157572,1678.9665496157572,1700.1805837877887,1715.010424146868
50,1691.6475935935916,1700.1805837877887,1715.010424146868,1724.1059143294194
51,1733.3361747169304,1733.3361747169304,1733.9465242664864,1749.284056537749
52,1763.1280095162363,1763.1280095162363,1772.4526544554192,1785.0510446269377
53,1775.784850355681,1775.784850355681,1786.4486443992632,1803.6613266778577
54,1795.585503744642,1795.585503744642,1831.1279492638184,1842.4804559337913
55,1844.3963298896706,1844.3963298896706,1852.5057270043933,1871.943796431857
56,1893.0461176586384,1893.0461176586384,1896.7945215743287,1917.4612404369348
57,1925.7242097603976,1925.7242097603976,1932.4439281384568,1950.342563888062
58,1946.5011460324722,1946.5011460324722,1955.9077637085222,1970.0363905835752
59,1974.7563321597245,1974.7563321597245,1988.7492341362624,2003.3400321338468
60,1999.0133483624074,1999.0133483624074,2004.6916758886357,2024.3327933072608
61,2017.7374983867876,2017.7374983867876,2032.7105676610672,2050.300399013568
62,2043.1398448607702,2043.1398448607702,2050.300399013568,2071.8417918565838
63,2098.8599328717164,2098.8599328717164,2100.32364183475,2117.985644243311
64,2137.6804348853225,2137.6804348853225,2145.4428675629683,2158.3440017051366
65,2176.440944211687,2176.440944211687,2197.0726384284753,2212.846048737525
66,2188.3110282629436,2197.0726384284753,2212.846048737525,2234.159737240414
67,2202.537104755707,2202.537104755707,2234.159737240414,2252.0769330516982
68,2225.8526868595413,2225.8526868595413,2252.0769330516982,2265.0694323875796
69,2267.7460906781366,2267.7460906781366,2274.38399462258,2291.8715780228504
70,2294.3968139835033,2294.3968139835033,2302.817466240588,2321.136502141709
71,2345.913283106004,2345.913283106004,2374.1904186364554,2389.862478819551
72,2365.0208366012466,2374.1904186364554,2389.862478819551,2407.1947698434683
73,2376.689496812503,2386.081635823888,2407.1947698434683,2418.6221169694845
74,2426.6012281271464,2426.6012281271464,2459.8962734727174,2479.222157653959
75,2470.123689912532,2470.123689912532,2479.222157653959,2492.193509870625
76,2500.3680524150286,2500.3680524150286,2503.636174844583,2516.321697082425
77,2555.2643818938627,2555.2643818938627,2564.7114741560026,2578.7491819287634
78,2573.6736682288006,2573.6736682288006,2578.7491819287634,2596.540697218044
79,2628.77090503743,2628.77090503743,2653.5916966986983,2671.571243297902
80,2676.5216951618795,2676.5216951618795,2685.7547847656315,2693.71375555859
81,2727.205299250804,2727.205299250804,2756.7455425155204,2775.931085094891
82,2760.152225827768,2760.152225827768,2780.4952844107393,2798.434816635227
83,2810.63026714558,2810.63026714558,2811.9732998412937,2830.563544996291
84,2837.6815285817543,2837.6815285817543,2841.848647502649,2858.551781940332
85,2849.066133250154,2849.066133250154,2858.551781940332,2875.209950546749
86,2897.4730122833216,2897.4730122833216,2914.593894006225,2924.1599770461185
87,2911.23884846268,2914.593894006225,2926.2706709377844,2944.016863971218
88,2936.282901679732,2936.282901679732,2944.016863971218,2961.161308294598
89,2984.3382251618923,2984.3382251618923,3011.498146754684,3026.2481947616843
90,3042.72201914927,3042.72201914927,3049.344595091205,3066.7966400242117
91,3084.9327600370716,3084.9327600370716,3100.566813321023,3119.893639947256
92,3131.46054042034,3131.46054042034,3144.5411560667603,3160.5865828396177
93,3165.310777734362,3165.310777734362,3171.7596990828824,3184.3303586915054
94,3196.5463404457682,3196.5463404457682,3197.189263616534,3214.174342629595
95,3229.0887578560496,3229.0887578560496,3262.847557823761,3273.7608475183715
96,3253.9706865774056,3262.847557823761,3273.7608475183715,3287.2053929539175
97,3268.3878647346796,3268.3878647346796,3287.2053929539175,3302.894073218546
98,3285.9527572086004,3285.9527572086004,3302.894073218546,3318.5130358792103
99,3337.697351286069,3337.697351286069,3375.025367585289,3388.855159139248
100,3376.559878156876,3376.559878156876,3388.855159139248,3406.0395624031503
101,3425.359768719609,3425.359768719609,3429.9085275581783,3445.289523996339
102,3462.785491589264,3462.785491589264,3464.275049752287,3477.4790049979806
103,3503.8546510125107,3503.8546510125107,3511.8280321565585,3529.025160285847
104,3518.089231661609,3518.089231661609,3529.025160285847,3542.6873905141815
105,3575.374890327004,3575.374890327004,3579.630526962001,3592.6841014353836
106,3627.450603058746,3627.450603058746,3663.3439079203245,3682.190106454819
107,3678.708565390957,3678.708565390957,3692.572808539268,3714.214818505225
108,3719.8943275780534,3719.8943275780534,3752.116128058354,3770.4951383543735
109,3743.8347743846175,3752.116128058354,3770.4951383543735,3789.263655651763
110,3801.858186477893,3801.858186477893,3804.194286341769,3823.0510519690815
111,3815.431060123184,3815.431060123184,3831.3244470923705,3853.294726259715
112,3851.61685801295,3851.61685801295,3854.2739788651415,3866.1077306330694
113,3896.1949724421356,3896.1949724421356,3903.621327800449,3922.8657488477684
114,3926.119238271817,3926.119238271817,3949.3790808751605,3962.2784708596587
115,3938.4766012021064,3949.3790808751605,3962.2784708596587,3979.1042884358644
116,3992.073069352793,3992.073069352793,3994.7963008116058,4015.3449592282514
117,4004.6542399383466,4004.6542399383466,4015.3449592282514,4031.426915831056
118,4044.6151398457523,4044.6151398457523,4045.2730786963257,4057.3279772831097
119,4094.446393374932,4094.446393374932,4112.029738399479,4127.133596875596
120,4122.6280059769115,4122.6280059769115,4127.133596875596,4140.05958566927
121,4175.90840115096,4175.90840115096,4180.3160662933515,4196.040448167341
122,4218.132088147869,4218.132088147869,4251.490963633488,4266.243108384917
123,4267.984223206328,4267.984223206328,4281.580935848268,4299.130922240311
124,4306.458273998031,4306.458273998031,4310.100406890299,4334.079305722032
125,4325.904897311765,4325.904897311765,4340.5624113742615,4359.651327933053
126,4346.6863028066955,4346.6863028066955,4385.774147506193,4398.359046850124
127,4403.293442538638,4403.293442538638,4436.322930918271,4454.370222449972
128,4420.702917410759,4436.322930918271,4454.370222449972,4470.574386344813
129,4459.388875913158,4459.388875913158,4470.574386344813,4484.503965587199
130,4473.974481308582,4473.974481308582,4484.503965587199,4506.271807354074
131,4497.94853679225,4497.94853679225,4511.056783304756,4525.8722269488835
132,4509.656757018629,4511.056783304756,4532.506875259724,4545.609852287205
133,4568.4823013918995,4568.4823013918995,4583.542941553391,4599.042881107553
134,4592.317224072062,4592.317224072062,4606.476714512643,4627.109003382933
135,4618.221334408691,4618.221334408691,4627.109003382933,4642.115007243493
136,4656.237369067317,4656.237369067317,4667.378818913743,4685.730581641115
137,4680.599061905935,4680.599061905935,4687.756992859836,4702.528415820078
138,4731.47263462156,4731.47263462156,4754.562812511457,4767.410296428562
139,4756.031430381902,4756.031430381902,4767.410296428562,4782.6284007750855
140,4767.818959231585,4767.818959231585,4782.6284007750855,4796.0971760266875
141,4788.5710746698705,4788.5710746698705,4796.0971760266875,4809.915968762825
142,4835.1122044179565,4835.1122044179565,4836.572871576311,4852.845756444023
143,4874.40955573412,4874.40955573412,4877.98729605978,4891.337611363189
144,4909.246564085067,4909.246564085067,4915.213939963453,4928.3714064038495
145,4949.455138605916,4949.455138605916,4962.808459503377,4979.084107178065
146,5004.8030377006,5004.8030377006,5015.1274586868785,5026.448724639377
147,5055.420022649929,5055.420022649929,5066.105425905507,5084.206605530768
148,5102.696488621966,5102.696488621966,5105.730952715565,5126.379053608198
149,5152.648823615307,5152.648823615307,5155.256146174853,5169.6414163808
150,5205.766627019706,5205.766627019706,5215.214804863809,5226.605052418217
151,5246.789145846988,5246.789145846988,5260.017663710926,5271.789782528152
152,5284.408356653144,5284.408356653144,5286.722060737358,5298.794543662143
153,5342.309890257281,5342.309890257281,5357.771528560413,5374.383419548209
154,5368.041965482759,5368.041965482759,5411.844192221318,5434.724729468823
155,5425.061030983992,5425.061030983992,5438.436060883915,5455.366996304529
156,5479.290016672004,5479.290016672004,5486.019712600921,5505.753685974671
157,5498.981130398665,5498.981130398665,5508.314932805108,5522.30047550391
158,5527.203609332501,5527.203609332501,5534.865532658808,5559.380379925774
159,5545.22244834899,5545.22244834899,5588.694856563171,5601.913869641029
160,5585.431840467978,5588.694856563171,5613.534455707482,5632.5055864656
161,5629.806922897895,5629.806922897895,5641.290223472763,5660.048315572614
162,5659.962284026591,5659.962284026591,5677.987673746779,5699.266966346204
163,5685.644732953964,5685.644732953964,5699.266966346204,5715.808065705063
164,5727.581230115795,5727.581230115795,5735.071724780037,5755.71179298697
165,5786.076904588232,5786.076904588232,5800.084343159297,5815.268396577638
166,5826.790995880833,5826.790995880833,5826.922230492366,5844.814364355976
167,5852.05240352007,5852.05240352007,5856.844459710124,5876.171718280495
168,5890.619665975865,5890.619665975865,5893.674870765736,5907.503145909847
169,5939.33151448361,5939.33151448361,5941.245620287059,5955.01700375745
170,5977.286004944648,5977.286004944648,5978.030815091927,5995.351510925845
171,6002.394784964993,6002.394784964993,6005.417605187598,6028.3910609556015
172,6020.1596481663455,6020.1596481663455,6050.448179293687,6069.06230270135
173,6065.646261342658,6065.646261342658,6072.87063453313,6091.244814075864
174,6108.833593904009,6108.833593904009,6132.6145333283375,6152.632724234914
175,6146.855006608636,6146.855006608636,6152.632724234914,6168.164531926778
176,6201.946578403125,6201.946578403125,6217.987922839512,6238.699633859181
177,6237.2821922545745,6237.2821922545745,6243.143102282904,6251.291052384872
178,6275.02409052804,6275.02409052804,6285.423925539838,6301.253712798751
179,6314.179950338074,6314.179950338074,6316.55131675901,6336.924184592119
180,6333.3733309033705,6333.3733309033705,6359.875219759129,6376.8482421321505
181,6366.144280900904,6366.144280900904,6393.834470065161,6410.1425569231205
182,6395.67602237858,6395.67602237858,6414.364221269741,6426.316722875395
183,6446.185091309351,6446.185091309351,6446.4017880775,6463.980775674916
184,6460.849377328774,6460.849377328774,6468.889361065412,6483.789726186951
185,6495.179161871069,6495.179161871069,6526.756033555439,6545.812926552824
186,6532.487079205023,6532.487079205023,6545.812926552824,6559.645790503645
187,6561.977598315891,6561.977598315891,6569.7670389929435,6581.354999951013
188,6612.355628117534,6612.355628117534,6615.173059287054,6631.5751020807675
189,6643.652914207476,6643.652914207476,6644.7111819809,6660.418301367649
190,6699.475040633206,6699.475040633206,6719.972405660304,6736.446736770493
191,6711.192979427192,6719.972405660304,6736.446736770493,6751.971537095936
192,6740.753831156231,6740.753831156231,6754.82076547723,6767.484112653771
193,6753.1738577092665,6754.82076547723,6773.696919936197,6784.82237893539
194,6808.71436379978,6808.71436379978,6808.733001518983,6828.83434587606
195,6844.5603119594625,6844.5603119594625,6855.467412580798,6873.489416344991
196,6877.870340224224,6877.870340224224,6891.369213553529,6902.646490669991
197,6934.568475744827,6934.568475744827,6935.998889633992,6950.035746135489
198,6985.183491654997,6985.183491654997,6992.373760498521,7009.499597028809
199,7022.966693993494,7022.966693993494,7030.545144432226,7051.895792664703
200,7065.200278925677,7065.200278925677,7068.026026484339,7084.892548149793
201,7096.76186414703,7096.76186414703,7114.854746299769,7128.452602561275
202,7119.481078142471,7119.481078142471,7136.872704292622,7156.947076863714
203,7150.660277769585,7150.660277769585,7156.947076863714,7172.596381183072
204,7189.405787587405,7189.405787587405,7194.514414125187,7212.069126767355
205,7207.546281765911,7207.546281765911,7212.811534350183,7230.274725934876
206,7235.041025692956,7235.041025692956,7238.3118994999195,7255.153255405744
207,7248.048982749476,7248.048982749476,7292.622697155256,7312.056839453949
208,7275.25683242894,7292.622697155256,7312.056839453949,7329.53224091721
209,7311.20322801886,7311.20322801886,7329.53224091721,7347.626026356304
210,7323.144512991456,7325.930594953818,7347.626026356304,7361.269333608039
211,7374.7951631472015,7374.7951631472015,7379.710865190807,7395.231606256222
212,7387.404421236873,7387.404421236873,7410.62373185541,7429.420414734781
213,7432.823714708353,7432.823714708353,7436.698641653278,7445.826529382207
214,7489.096383574987,7489.096383574987,7510.7235865461425,7525.303492070338
215,7546.124235595435,7546.124235595435,7549.279699651987,7559.597360776924
216,7584.590213506957,7584.590213506957,7588.641899340124,7604.663953523815
217,7636.238708991553,7636.238708991553,7636.950771542617,7647.383482663264
218,7675.260473285639,7675.260473285639,7694.547431519447,7710.34350569833
219,7710.149004295992,7710.149004295992,7716.433799870188,7732.824489433264
220,7726.267073390558,7726.267073390558,7748.822601811099,7755.844408683857
221,7764.023277887355,7764.023277887355,7786.118379616445,7799.684832750652
222,7778.353736347594,7786.118379616445,7799.684832750652,7812.150837073222
223,7833.939226763248,7833.939226763248,7840.705000839202,7856.664186255331
224,7885.0258076939845,7885.0258076939845,7905.7686189499,7922.373464129788
225,7940.556164600795,7940.556164600795,7941.0012771673155,7958.044164825711
226,7998.71774199278,7998.71774199278,8018.02609955011,8035.956546007288
227,8024.902736527344,8024.902736527344,8043.704149946408,8057.700651674712
228,8066.285266975046,8066.285266975046,8069.039812649505,8085.505806253834
229,8081.694393443258,8081.694393443258,8085.505806253834,8101.357626804057
230,8104.029337694466,8104.029337694466,8113.508982711952,8128.63327971517
231,8139.425044663722,8139.425044663722,8158.808206415119,8176.9566279560695
232,8170.41166764657,8170.41166764657,8176.9566279560695,8190.656392651095
233,8198.901756512789,8198.901756512789,8219.426788502644,8238.775075293557
234,8244.24845871453,8244.24845871453,8258.042772806832,8274.309723010925
235,8259.8988318051,8259.8988318051,8274.309723010925,8288.909973460468
236,8291.250935529022,8291.250935529022,8298.677851923543,8312.425530406883
237,8331.471420603142,8331.471420603142,8353.654411793877,8366.90029780361
238,8354.737829620088,8354.737829620088,8371.489114844517,8382.55290315966
239,8372.425050912096,8372.425050912096,8382.55290315966,8397.223101546379
240,8423.81694604925,8423.81694604925,8425.31887871375,8441.01966233802
241,8475.89817962582,8475.89817962582,8481.923287180316,8497.128491388434
242,8498.618184409237,8498.618184409237,8503.080019456434,8521.621245397348
243,8516.047318341982,8516.047318341982,8525.644525140247,8543.70447093813
244,8572.183395866201,8572.183395866201,8579.762193543893,8592.825799751887
245,8606.85007851788,8606.85007851788,8613.212077641603,8630.121427670412
246,8631.940563688158,8631.940563688158,8672.543846473258,8694.479562653594
247,8659.001521701593,8672.543846473258,8694.479562653594,8713.645719255754
248,8690.513555645919,8690.513555645919,8713.645719255754,8730.684773520963
249,8718.245176710936,8718.245176710936,8730.684773520963,8749.871121732209
250,8747.504685575763,8747.504685575763,8759.559636471624,8774.944713073452
251,8764.332113845,8764.332113845,8774.944713073452,8790.938415381193
252,8785.31466165667,8785.31466165667,8790.938415381193,8807.37030269641
253,8815.206989680752,8815.206989680752,8828.775141401378,8845.879265136015
254,8839.623851451968,8839.623851451968,8845.879265136015,8867.059442036369
255,8870.729488589952,8870.729488589952,8872.820625078079,8890.563543227698
256,8916.991955462645,8916.991955462645,8924.094608229196,8937.881123043926
257,8935.779044627847,8935.779044627847,8940.782678517167,8956.688673836321
