# file created by code in harbour_fns_1896438.jl
# file created on 2026-03-09 at 15:39:43
# parameter: seed = 1896573
# parameter: T = 30000.0
# parameter: lower_interarrival = 11.0
# parameter: upper_interarrival = 59.0
# parameter: mean_process_times = [11.0, 16.0]
# parameter: max_queue = [9223372036854775807, 4]
# parameter: time_units = hours
id,arrival_time,start_service_times,start_service_times,completion_time
1,0.0,0.0,11.026806624023967,25.16576169108776
2,47.82438574779475,47.82438574779475,56.08810113655879,74.70723371894044
3,94.9664244680224,94.9664244680224,127.88630009204601,143.47850015062477
4,150.48775798972156,150.48775798972156,157.08352168617796,174.71279171805105
5,166.66842054142518,166.66842054142518,175.3746481069303,195.01315070440717
6,193.96480167555455,193.96480167555455,195.05106307480276,212.8405186060965
7,224.72641988957608,224.72641988957608,227.16167952698606,237.85641879260348
8,272.94742296251525,272.94742296251525,274.69149976862343,291.0856872447873
9,325.34527860698745,325.34527860698745,339.63205235458554,357.63234508146223
10,344.46396258533446,344.46396258533446,381.75053094861926,400.73229397780887
11,403.34802981496176,403.34802981496176,411.7371532106125,425.7626503871294
12,429.01762459312783,429.01762459312783,458.81182967361303,479.76567417728825
13,443.3321286591225,458.81182967361303,500.03590289178555,515.0531414196399
14,462.26869353845444,500.03590289178555,518.062132778513,531.6072756126478
15,499.2898797776074,518.062132778513,533.672411891583,541.6607790234781
16,528.9777464240456,533.672411891583,541.6607790234781,554.9863830618139
17,565.2870593867785,565.2870593867785,566.1118849550683,582.3211505887194
18,623.1162918937998,623.1162918937998,631.2143917056155,644.1286562022236
19,642.8940314106393,642.8940314106393,655.5991171225377,673.8035630852656
20,677.9867071494727,677.9867071494727,687.9821532179049,709.417624976544
21,727.3138193708833,727.3138193708833,728.14906089401,746.8852437870462
22,758.173338732649,758.173338732649,758.7017498503193,775.963255044381
23,777.1754256208536,777.1754256208536,785.2656577090744,799.0480506735797
24,788.8887735309513,788.8887735309513,799.0480506735797,812.4050177619035
25,827.3618812599381,827.3618812599381,832.5805868112744,852.0376997188697
26,881.6002927037522,881.6002927037522,887.0879540210072,904.295235463603
27,900.7326488534437,900.7326488534437,907.5149098930042,921.2171226385772
28,952.13237827922,952.13237827922,978.1178343949326,999.9297715834858
29,983.5376587807247,983.5376587807247,1030.5881607595038,1048.1194743654298
30,1008.9314637745871,1030.5881607595038,1048.1194743654298,1062.0554410996424
31,1057.1202838888903,1057.1202838888903,1098.6886368789606,1114.9857707617246
32,1093.3289006368725,1098.6886368789606,1114.9857707617246,1134.1869051733206
33,1132.0118285058606,1132.0118285058606,1136.4180395361054,1149.2121614434845
34,1184.214726205591,1184.214726205591,1201.7284605870611,1218.9728802244704
35,1236.6441035293801,1236.6441035293801,1249.9635209413925,1259.1582709149993
36,1261.3014595221741,1261.3014595221741,1270.835018733079,1285.126269619309
37,1281.0871867881,1281.0871867881,1287.3286943804726,1304.3846990098866
38,1325.3580081859752,1325.3580081859752,1344.405420883544,1353.4765378865563
39,1359.7138542427826,1359.7138542427826,1365.1111629233526,1380.5762887791602
40,1407.6962911710243,1407.6962911710243,1420.407800825796,1433.1757148462555
41,1440.9376184181913,1440.9376184181913,1442.9541117178278,1459.0072346079735
42,1470.928079432552,1470.928079432552,1481.573416513427,1494.336728047777
43,1518.4707988930531,1518.4707988930531,1518.52385147308,1537.8032931659307
44,1554.2072158947149,1554.2072158947149,1563.2970044496387,1582.565475288307
45,1591.7408627243854,1591.7408627243854,1615.2531598254825,1625.2156986305183
46,1615.1934589181317,1615.2531598254825,1636.8716835275998,1653.7543614075394
47,1640.8055484576194,1640.8055484576194,1653.7543614075394,1668.648671143844
48,1670.9355421830212,1670.9355421830212,1700.5260053705852,1716.719171695752
49,1719.6734205603914,1719.6734205603914,1721.018632726957,1741.924891229952
50,1737.389389474467,1737.389389474467,1741.924891229952,1758.896479523824
51,1770.7707482751423,1770.7707482751423,1794.8892203679538,1812.8672989270488
52,1804.297087981561,1804.297087981561,1825.4547815932742,1838.9549837483162
53,1834.0404630841813,1834.0404630841813,1838.9549837483162,1853.0748861479756
54,1874.931060979292,1874.931060979292,1895.8820355764028,1915.2996268618947
55,1929.928062149359,1929.928062149359,1930.4727488739668,1947.0287157890657
56,1983.1825694136403,1983.1825694136403,1988.656155979791,2002.6976159510605
57,2040.310601358277,2040.310601358277,2048.3243873087745,2066.493350364735
58,2094.44332447224,2094.44332447224,2102.4362939560474,2119.2975383770113
59,2145.897779344343,2145.897779344343,2160.714010121743,2177.1481036869636
60,2198.051070471158,2198.051070471158,2209.7172627834193,2220.6147675307716
61,2231.6937580349318,2231.6937580349318,2232.461078379943,2250.25531827682
62,2268.9391794860067,2268.9391794860067,2280.9200294412008,2300.3522617643835
63,2317.04328562834,2317.04328562834,2324.069056847618,2336.5885175387552
64,2338.005606777398,2338.005606777398,2340.546369419675,2354.160010499914
65,2366.6521329872817,2366.6521329872817,2394.6194297517914,2411.696571025994
66,2384.8685617947785,2394.6194297517914,2411.696571025994,2427.743984234681
67,2437.8117153306353,2437.8117153306353,2439.599673918099,2457.057577232178
68,2478.3275047437155,2478.3275047437155,2508.9639187361327,2531.632689835036
69,2529.2318901082526,2529.2318901082526,2534.6458303373756,2547.2394582509246
70,2552.6255283022533,2552.6255283022533,2559.242659793415,2569.6334273441853
71,2563.7773623056355,2563.7773623056355,2583.955539894542,2601.689791546336
72,2582.231249900147,2583.955539894542,2601.689791546336,2622.4752439993945
73,2621.9713157783576,2621.9713157783576,2628.728231243904,2648.0981051587023
74,2669.8543205999176,2669.8543205999176,2699.173425732879,2716.7277240180133
75,2722.363629405498,2722.363629405498,2744.792837602211,2758.6975242504705
76,2758.039377916902,2758.039377916902,2761.93771348559,2780.154854231822
77,2788.902965258755,2788.902965258755,2796.4325605290123,2808.6970883422205
78,2831.8714163258796,2831.8714163258796,2850.3663565598895,2867.518251323597
79,2890.000754483893,2890.000754483893,2893.190593855863,2907.50357185581
80,2918.4058292710442,2918.4058292710442,2918.560322863313,2937.4178348031737
81,2953.526714227649,2953.526714227649,2976.2265925301263,2993.4490961761303
82,3002.3244471790217,3002.3244471790217,3005.1108691925515,3023.5712659282985
83,3042.0916568261705,3042.0916568261705,3048.264315114541,3065.640405414222
84,3070.2558260313626,3070.2558260313626,3094.4762124035065,3107.3725597769158
85,3095.776228592553,3095.776228592553,3107.3725597769158,3127.0826586021426
86,3123.9252903651427,3123.9252903651427,3132.365809326689,3145.8782745198137
87,3142.740581405116,3142.740581405116,3145.8782745198137,3162.110886743996
88,3164.9970431912607,3164.9970431912607,3168.106298165677,3182.6440296280957
89,3223.1048874100507,3223.1048874100507,3246.303073534009,3260.8275265890748
90,3280.2304159939317,3280.2304159939317,3282.5328512277993,3301.104406541435
91,3303.1608963298086,3303.1608963298086,3304.5104227340885,3325.4437246665916
92,3325.622170942773,3325.622170942773,3331.8467564705074,3348.947877415538
93,3369.0867633336197,3369.0867633336197,3429.1146531691493,3445.1074786208346
94,3415.163258570657,3429.1146531691493,3445.1074786208346,3462.892913654486
95,3454.1531094954266,3454.1531094954266,3462.892913654486,3479.8971582856757
96,3483.0529752735442,3483.0529752735442,3492.93072125628,3507.9773110627284
97,3525.8492063025265,3525.8492063025265,3528.192606958779,3541.6380222112434
98,3546.8888998764064,3546.8888998764064,3549.7145022733175,3566.5545019662704
99,3596.042647948988,3596.042647948988,3599.5946164275733,3619.8578986317693
100,3611.1711759737072,3611.1711759737072,3626.2713590125786,3641.064488047976
101,3641.656733228613,3641.656733228613,3653.490008210318,3671.5033571693025
102,3663.7994991371716,3663.7994991371716,3675.6239456392473,3691.1049865551263
103,3686.4875683464124,3686.4875683464124,3702.888277930462,3720.0490348847607
104,3709.5851702616865,3709.5851702616865,3723.432575382824,3743.1259174044176
105,3755.7566762316324,3755.7566762316324,3812.889084615864,3830.6309487148146
106,3798.4550929044467,3812.889084615864,3833.1203799214577,3850.9541284071515
107,3836.5218829069163,3836.5218829069163,3850.9541284071515,3861.640261663676
108,3864.0009036234496,3864.0009036234496,3915.0899450060665,3927.584624238954
109,3906.908318183059,3915.0899450060665,3927.703306308555,3939.1201938360987
110,3924.624214470909,3927.703306308555,3949.675176148951,3966.8338859932005
111,3958.4696457605287,3958.4696457605287,3985.2391208736276,3999.2224165512957
112,4010.504032249949,4010.504032249949,4017.5047935110806,4031.970577907702
113,4048.1804664771853,4048.1804664771853,4053.3216122960052,4070.8654228889873
114,4076.763677294396,4076.763677294396,4087.5399876602733,4097.973734177109
115,4128.910547931106,4128.910547931106,4132.385616502615,4147.019335240813
116,4162.4854798141305,4162.4854798141305,4170.1509519009105,4188.342081934305
117,4197.325887436977,4197.325887436977,4215.3371661405,4230.677006234678
118,4218.458348572469,4218.458348572469,4234.893854266095,4249.851999507128
119,4264.107323111107,4264.107323111107,4270.303342665338,4288.751474508342
120,4299.1951686630155,4299.1951686630155,4305.8034182437705,4323.149449731485
121,4325.2951358117125,4325.2951358117125,4331.039428264729,4343.738535152624
122,4357.334884774212,4357.334884774212,4362.263028121982,4375.754144612331
123,4390.021289088146,4390.021289088146,4411.4865177859065,4427.671409084107
124,4448.559630501676,4448.559630501676,4452.876438993806,4470.457720842626
125,4488.036903763937,4488.036903763937,4499.271009965549,4513.461202885569
126,4535.625179027165,4535.625179027165,4540.256455729248,4556.214846967516
127,4586.090618661156,4586.090618661156,4613.00841345471,4631.653354963146
128,4631.100424137231,4631.100424137231,4636.877881733866,4652.456966712094
129,4669.789162998558,4669.789162998558,4669.834399188825,4692.358656666768
130,4686.86648662808,4686.86648662808,4709.097787753662,4726.950367702286
131,4740.523000558437,4740.523000558437,4744.885120208553,4759.851120940018
132,4781.570189825173,4781.570189825173,4821.855466395636,4838.996945092279
133,4803.492381001328,4821.855466395636,4861.116146487655,4876.379859068522
134,4853.660375444681,4861.116146487655,4876.379859068522,4896.785313707173
135,4869.65209773167,4869.65209773167,4922.822676977427,4937.76159164189
136,4902.081006837053,4922.822676977427,4937.76159164189,4954.69772852287
137,4951.990000921653,4951.990000921653,4971.23267428996,4987.358739292482
138,5003.12183528879,5003.12183528879,5004.392845626822,5022.3276644790885
139,5048.105113236546,5048.105113236546,5062.962632489497,5080.746180411767
140,5077.154903117199,5077.154903117199,5080.746180411767,5097.018069110963
141,5093.791858556183,5093.791858556183,5100.581741753354,5115.375788875439
142,5110.7177987972245,5110.7177987972245,5124.417093142164,5140.330984144101
143,5168.785936514017,5168.785936514017,5179.612670019401,5192.626087819
144,5225.122744512455,5225.122744512455,5263.972486538232,5286.457261120585
145,5265.844011184707,5265.844011184707,5286.457261120585,5304.277842695611
146,5290.882928359221,5290.882928359221,5304.277842695611,5315.729374203026
147,5348.481245355338,5348.481245355338,5359.443389255629,5374.635515167365
148,5394.981954081563,5394.981954081563,5402.7577795421485,5419.02307748825
149,5441.48302615842,5441.48302615842,5446.705502278453,5466.836539647899
150,5492.426433721422,5492.426433721422,5503.0787478678885,5523.214567617017
151,5520.409352965087,5520.409352965087,5526.446671577086,5537.73974851767
152,5534.575209337475,5534.575209337475,5537.73974851767,5549.36877778367
153,5556.892445507365,5556.892445507365,5566.160622214103,5575.269115521134
154,5609.8666856073,5609.8666856073,5623.2016982296755,5637.105286243465
155,5657.756228680075,5657.756228680075,5671.3895192359405,5687.248403200701
156,5670.545025980356,5671.3895192359405,5696.472429847876,5712.159351343172
157,5693.039386104985,5696.472429847876,5712.159351343172,5728.172677107346
158,5720.910500431057,5720.910500431057,5738.496443337224,5753.367135150378
159,5738.801874996488,5738.801874996488,5753.367135150378,5768.668848807471
160,5787.937445852835,5787.937445852835,5790.372004806356,5810.29623446282
161,5820.124258337996,5820.124258337996,5830.180131920866,5843.10598724225
162,5854.686095756022,5854.686095756022,5859.33348835717,5873.4311866011885
163,5888.361330286715,5888.361330286715,5913.7474643657415,5931.284880996836
164,5920.257319117614,5920.257319117614,5931.284880996836,5947.354631267788
165,5973.79137925076,5973.79137925076,6004.671659418813,6021.894022572847
166,5997.589007568534,6004.671659418813,6021.894022572847,6036.2171484862665
167,6013.755082811977,6013.755082811977,6036.2171484862665,6051.7037655218855
168,6052.021953580787,6052.021953580787,6056.494365392775,6080.9473652033585
169,6082.79979027817,6082.79979027817,6084.000688050425,6098.992364093352
170,6137.928595712202,6137.928595712202,6151.319888019413,6165.216144892994
171,6159.805024139094,6159.805024139094,6169.478885815252,6187.597576037153
172,6180.459016696169,6180.459016696169,6187.597576037153,6203.04563331289
173,6202.141550274913,6202.141550274913,6205.09208895052,6218.940439581577
174,6247.256976790666,6247.256976790666,6255.988929384001,6277.626204023374
175,6259.576334670308,6259.576334670308,6277.626204023374,6290.947699056371
176,6274.5547957328245,6277.61822049929,6290.947699056371,6304.814660220079
177,6288.720871634835,6288.720871634835,6307.184685594937,6325.170041163362
178,6333.947854783202,6333.947854783202,6342.128799822435,6358.001830753592
179,6365.397893624291,6365.397893624291,6366.805467633535,6384.556413025768
180,6421.093364880444,6421.093364880444,6440.195491861184,6458.863326319791
181,6433.397880952983,6440.195491861184,6458.863326319791,6468.793828491757
182,6444.855395120644,6447.386670615672,6468.793828491757,6490.214812433423
183,6477.5299369279,6477.5299369279,6490.214812433423,6505.369615046605
184,6503.832439373886,6503.832439373886,6507.9481334383845,6525.942962920107
185,6540.015857631764,6540.015857631764,6543.848808397555,6562.86699500761
186,6591.858286095864,6591.858286095864,6600.8969638583,6614.858160366547
187,6638.783139685184,6638.783139685184,6643.569601976462,6662.212329878313
188,6662.089956141011,6662.089956141011,6666.984341140984,6676.594466926268
189,6712.0238305565745,6712.0238305565745,6726.288427102157,6740.448325920903
190,6754.6469598547355,6754.6469598547355,6788.51444780764,6801.030654621523
191,6807.2023737902155,6807.2023737902155,6810.7627703226,6828.268996834453
192,6855.4273379445785,6855.4273379445785,6855.557245071228,6870.511037517595
193,6886.771325755821,6886.771325755821,6895.201438452203,6912.056197027232
194,6899.309868071203,6899.309868071203,6918.981416848924,6929.960260450367
195,6936.4795470410245,6936.4795470410245,6941.972027076151,6959.396314064631
196,6989.580011270139,6989.580011270139,6993.117339008447,7010.602407426566
197,7043.114009821618,7043.114009821618,7052.216040014897,7068.21558047713
198,7059.610524387554,7059.610524387554,7068.21558047713,7087.1575836868815
199,7077.900312165745,7077.900312165745,7087.1575836868815,7105.684973192072
200,7133.985830136146,7133.985830136146,7139.590406829232,7155.35468578338
201,7149.802384237484,7149.802384237484,7159.73765012088,7176.49801704488
202,7187.8463988556905,7187.8463988556905,7192.052863757454,7210.5623496852295
203,7223.7341012176,7223.7341012176,7233.035047411959,7252.930388842195
204,7236.888218268174,7236.888218268174,7255.091997145314,7266.799781080143
205,7250.062162525022,7255.091997145314,7266.799781080143,7283.274660170672
206,7273.293861493324,7273.293861493324,7291.14409879977,7308.8072278373975
207,7301.4681422372905,7301.4681422372905,7309.563525189128,7318.849019625142
208,7320.474763226996,7320.474763226996,7325.620680905451,7349.030341820092
209,7356.637214290475,7356.637214290475,7385.888297644006,7400.563419038482
210,7368.212017392671,7385.888297644006,7400.563419038482,7416.07081248631
211,7400.230105607638,7400.230105607638,7416.07081248631,7433.376615511425
212,7445.797058201189,7445.797058201189,7459.2658128571165,7471.015198032379
213,7494.093925000214,7494.093925000214,7502.451353690051,7513.56795029478
214,7524.240299829084,7524.240299829084,7532.901561529322,7551.429534664769
215,7555.156036475039,7555.156036475039,7556.692922326951,7576.148814042105
216,7573.598008925638,7573.598008925638,7597.34524808786,7614.30423203256
217,7601.434604848836,7601.434604848836,7614.30423203256,7628.154178224148
218,7646.8822808091745,7646.8822808091745,7655.350850599255,7674.7666614712025
219,7687.137330243009,7687.137330243009,7697.983506666972,7713.819023152973
220,7726.189745756141,7726.189745756141,7743.126938730188,7759.963226144503
221,7737.317113168078,7743.126938730188,7759.963226144503,7776.657784225708
222,7782.840806794261,7782.840806794261,7797.326178569128,7807.350958179126
223,7806.147799572639,7806.147799572639,7829.468392890165,7846.430150209205
224,7846.382309687563,7846.382309687563,7848.144876320503,7864.898881768529
225,7891.3811052959245,7891.3811052959245,7902.27805226116,7921.0816671501625
226,7928.096375922703,7928.096375922703,7949.811345015769,7968.937919413253
227,7951.920351197279,7951.920351197279,7968.937919413253,7988.569278161456
228,8000.808658404191,8000.808658404191,8007.830215974143,8026.393863281286
229,8022.72626295473,8022.72626295473,8026.393863281286,8043.732006367444
230,8064.716204703534,8064.716204703534,8070.089494947022,8090.948683273691
231,8083.276104146198,8083.276104146198,8090.948683273691,8105.002019110774
232,8116.399894724942,8116.399894724942,8121.584525224981,8135.715084045342
233,8138.129924886243,8138.129924886243,8160.815428293691,8179.148758442261
234,8171.378901868592,8171.378901868592,8179.148758442261,8195.133006229893
235,8200.897147253445,8200.897147253445,8210.070725131327,8218.406985780883
236,8233.696212006764,8233.696212006764,8251.094645343224,8265.10157192373
237,8250.958497853251,8251.094645343224,8265.10157192373,8282.683964418697
238,8269.129978039859,8269.129978039859,8284.568113472882,8301.457723968733
239,8283.807352701868,8284.568113472882,8305.940579261409,8323.13272462545
240,8324.681302010747,8324.681302010747,8343.709592943953,8359.456039500279
241,8355.99152439969,8355.99152439969,8359.456039500279,8372.385615041641
242,8405.230844337091,8405.230844337091,8411.778588660509,8427.287210732284
243,8456.884317694805,8456.884317694805,8460.2896232657,8475.970183184983
244,8512.424972178087,8512.424972178087,8525.708117870718,8536.912381865708
245,8549.00931478893,8549.00931478893,8564.650591816124,8584.579307303535
246,8589.392648351328,8589.392648351328,8618.831827594742,8631.238796398453
247,8610.291467079955,8618.831827594742,8631.238796398453,8646.412906952059
248,8648.294556701994,8648.294556701994,8674.420917142514,8691.649650604038
249,8665.89675105791,8674.420917142514,8691.649650604038,8706.004571047553
250,8690.61920688772,8690.61920688772,8709.150927440509,8726.754514182689
251,8718.809530135584,8718.809530135584,8726.754514182689,8748.208168052222
252,8736.503613590354,8736.503613590354,8748.208168052222,8759.779660661186
253,8783.961933915403,8783.961933915403,8817.644455538766,8835.428989985156
254,8822.50500201824,8822.50500201824,8835.428989985156,8851.863315801114
255,8879.664345780631,8879.664345780631,8892.925049862259,8903.724615950536
256,8919.26049208039,8919.26049208039,8934.566572568147,8948.705570909191
