# file created by code in harbour_fns_1896438.jl
# file created on 2026-03-09 at 15:39:47
# parameter: seed = 1896628
# parameter: T = 30000.0
# parameter: lower_interarrival = 11.0
# parameter: upper_interarrival = 59.0
# parameter: mean_process_times = [11.0, 16.0]
# parameter: max_queue = [9223372036854775807, 4]
# parameter: time_units = hours
id,arrival_time,start_service_times,start_service_times,completion_time
1,0.0,0.0,18.99207874857553,30.818721129726573
2,21.7669560416516,21.7669560416516,40.355386295285044,54.19476536721124
3,50.174697257527114,50.174697257527114,57.51070079398798,73.24089885368005
4,71.13972419440037,71.13972419440037,87.58208555773699,99.15353086822742
5,120.36403569323964,120.36403569323964,123.50161359461663,141.36188805231848
6,173.05085505766294,173.05085505766294,174.0973805839046,187.51670899901958
7,184.79658324105912,184.79658324105912,216.76258005899064,233.5535501149126
8,233.09337728923288,233.09337728923288,244.05503747825335,254.30423876260247
9,274.6695425969269,274.6695425969269,287.2587250709947,305.9209552144525
10,292.5748797303553,292.5748797303553,305.9209552144525,319.9373622950279
11,315.3716946724744,315.3716946724744,319.9373622950279,338.84361016477555
12,332.0394378628759,332.0394378628759,347.9549902665834,359.43976697334307
13,367.9870135170392,367.9870135170392,384.52821055935163,399.1020741460769
14,399.9258078617164,399.9258078617164,401.57423134459697,413.3674865078222
15,428.05496657127026,428.05496657127026,441.3224575365889,455.30404593205947
16,456.34707566033103,456.34707566033103,476.0753971898388,489.3670786669762
17,501.79355136805225,501.79355136805225,505.25986209491987,524.87947530887
18,520.5770920565323,520.5770920565323,525.6468903510664,540.0825580556368
19,557.5784080789348,557.5784080789348,562.5135673730373,577.0864362582339
20,613.9357556573598,613.9357556573598,623.8112909191577,639.0472564327316
21,660.5892187906502,660.5892187906502,663.0306711674692,679.6396381835385
22,703.0055653850884,703.0055653850884,721.98742218549,741.0756805714399
23,747.6231970273009,747.6231970273009,754.3413127407026,770.6615723798415
24,775.3646823413828,775.3646823413828,783.5570146840666,794.0720022355094
25,791.5094182787288,791.5094182787288,802.0201820607421,818.9837240441365
26,850.2166816941325,850.2166816941325,855.5940955793303,880.2265733638711
27,872.2354669535225,872.2354669535225,881.2894247457608,904.4966214541038
28,893.9377834872681,893.9377834872681,940.0157218267997,956.8438881892735
29,911.265207525736,940.0157218267997,956.8438881892735,975.7846156882421
30,925.1184017466022,946.1505080843538,975.7846156882421,988.9540521814389
31,981.2829987459704,981.2829987459704,999.355816278321,1017.9471263749017
32,1006.5315662810443,1006.5315662810443,1020.9341125938128,1036.9152042365117
33,1043.511419927511,1043.511419927511,1046.2728157876036,1065.7137923661403
34,1081.849063519034,1081.849063519034,1108.2996335919454,1126.7360186676995
35,1138.9026998758693,1138.9026998758693,1190.725647752394,1206.72572055165
36,1165.8928643965985,1190.725647752394,1206.72572055165,1224.1303907908627
37,1183.330898422584,1197.8449373475141,1224.1303907908627,1240.53061481315
38,1230.0950995786238,1230.0950995786238,1240.53061481315,1255.7631568079223
39,1262.2243341781443,1262.2243341781443,1293.8724236620124,1310.7301067562266
40,1291.3275712647262,1293.8724236620124,1310.7301067562266,1320.7323614172456
41,1335.9329670665782,1335.9329670665782,1342.3864541905984,1356.615365219134
42,1358.7327094956336,1358.7327094956336,1361.4347514288083,1378.878104974608
43,1406.4793436677403,1406.4793436677403,1456.3890345071036,1475.08983713957
44,1423.122319277017,1456.3890345071036,1475.08983713957,1492.7870303520215
45,1436.4849204554514,1464.4626295539656,1492.7870303520215,1513.7020484072107
46,1456.7689038656335,1466.163496982114,1513.7020484072107,1530.6451635803307
47,1512.7986343058956,1512.7986343058956,1530.6451635803307,1551.7510189610991
48,1538.4194076660729,1538.4194076660729,1553.2262959938307,1566.2138267470013
49,1580.5063996216345,1580.5063996216345,1591.5924364440311,1606.0368566285647
50,1629.0295819614053,1629.0295819614053,1632.357192472065,1647.3420986942954
51,1643.929475870758,1643.929475870758,1694.750975615449,1709.7280294618588
52,1678.8804298481778,1694.750975615449,1709.7280294618588,1723.0371714535534
53,1702.6636704691293,1702.6636704691293,1733.51903842549,1751.6380865336862
54,1719.4510843763187,1733.51903842549,1751.6380865336862,1770.8804378288587
55,1736.8199966982943,1736.8199966982943,1770.8804378288587,1788.1353744773703
56,1749.889897353815,1749.889897353815,1788.1353744773703,1804.3736337787627
57,1806.3057234503976,1806.3057234503976,1810.93319420639,1830.0264067549244
58,1845.7855364239151,1845.7855364239151,1856.0906677521973,1871.2115143443605
59,1891.5086569052457,1891.5086569052457,1899.0599704326426,1918.932028405232
60,1909.2097423836856,1909.2097423836856,1918.932028405232,1936.984426698431
61,1962.8831031530287,1962.8831031530287,1981.2452922768068,1997.0178113953684
62,1984.743010790949,1984.743010790949,2010.5490594782084,2030.3667355919674
63,2021.2932075089332,2021.2932075089332,2030.3667355919674,2046.3774708619203
64,2032.6646033165025,2032.6646033165025,2046.3774708619203,2063.509200585785
65,2057.630345299889,2057.630345299889,2065.8487703277133,2082.3772742007013
66,2070.905385349259,2070.905385349259,2128.7715845698476,2147.294652889867
67,2105.3605503486547,2128.7715845698476,2147.294652889867,2167.5507642444936
68,2139.254336311347,2139.254336311347,2167.5507642444936,2186.917719212652
69,2175.543791953771,2175.543791953771,2186.917719212652,2211.7747083748905
70,2234.3707133319235,2234.3707133319235,2266.1171003315235,2283.2256141474973
71,2278.582415238792,2278.582415238792,2283.2256141474973,2305.7320467480636
72,2295.858373020367,2295.858373020367,2305.7320467480636,2325.0879221321957
73,2347.804618465899,2347.804618465899,2349.9689361545293,2362.9541771000704
74,2389.4121158089565,2389.4121158089565,2408.917169911295,2430.743390063912
75,2440.374414198378,2440.374414198378,2443.24110016432,2468.390218995096
76,2475.983389317694,2475.983389317694,2482.555656908864,2500.4715367593126
77,2518.7474277110427,2518.7474277110427,2535.371285273166,2550.631913421799
78,2570.1560470551685,2570.1560470551685,2571.6925026823005,2586.00034866559
79,2614.9167874598897,2614.9167874598897,2640.295845849354,2652.427427015992
80,2633.9038386977377,2640.295845849354,2652.427427015992,2662.4692507694444
81,2669.513682126396,2669.513682126396,2676.117152615707,2692.861490457506
82,2697.315322761983,2697.315322761983,2708.980728767382,2725.834541761192
83,2752.7723202475263,2752.7723202475263,2764.6264879753094,2777.7074522576518
84,2796.7289620933766,2796.7289620933766,2804.6744846940364,2823.066687396491
85,2833.723896941116,2833.723896941116,2833.758468382204,2846.0049984129087
86,2859.7814832562685,2859.7814832562685,2864.8243585728696,2880.116395552368
87,2905.0240975860047,2905.0240975860047,2959.9547358446634,2975.7139978238697
88,2938.623115517058,2959.9547358446634,2975.7139978238697,2994.0269147560716
89,2968.642201375193,2973.2149529502776,2994.0269147560716,3009.9962285777974
90,2989.981571781306,2989.981571781306,3009.9962285777974,3026.3921559727064
91,3024.8276331597617,3024.8276331597617,3027.91465536672,3047.5361742175205
92,3048.491837934227,3048.491837934227,3073.4573764067336,3088.4092355078005
93,3067.894883286654,3073.4573764067336,3088.4092355078005,3105.479132967049
94,3085.7267910241408,3085.7267910241408,3105.479132967049,3125.757441991852
95,3133.2881963937084,3133.2881963937084,3135.9352712473133,3147.346023161641
96,3186.709853121161,3186.709853121161,3193.811065677674,3205.5638510549784
97,3243.3893505503465,3243.3893505503465,3244.6888472001247,3264.659495103129
98,3278.8450855857063,3278.8450855857063,3283.2245334946983,3298.8999095992403
99,3292.266901483768,3292.266901483768,3302.434464999268,3319.4743485736626
100,3307.1625962616645,3307.1625962616645,3319.4743485736626,3338.0600400084654
101,3320.1629042624722,3320.1629042624722,3338.0600400084654,3363.2640137152152
102,3366.1179439883554,3366.1179439883554,3366.8916012402165,3383.554603035603
103,3395.382435037129,3395.382435037129,3403.40971061463,3415.0628030561015
104,3437.5365308904197,3437.5365308904197,3440.9029462715484,3451.089782234761
105,3464.4118259646884,3464.4118259646884,3477.385768343675,3490.1729220559796
106,3514.552153049731,3514.552153049731,3515.7317813684244,3523.8431115249623
107,3569.759885216293,3569.759885216293,3585.378779470625,3597.6703286288885
108,3595.2883956730143,3595.2883956730143,3624.8213475127945,3647.9125551748016
109,3640.6199700033635,3640.6199700033635,3647.9125551748016,3666.40139537663
110,3674.1336370468925,3674.1336370468925,3675.20797962591,3689.713565731766
111,3713.833732286378,3713.833732286378,3732.4173861501954,3749.621762874044
112,3735.646605910876,3735.646605910876,3755.8496031365,3765.882513176917
113,3778.1097755187643,3778.1097755187643,3780.128231957148,3797.5158634804598
114,3816.622820492307,3816.622820492307,3824.7179382647923,3842.551430558619
115,3845.4835098852736,3845.4835098852736,3846.45195376493,3859.5941108817074
116,3873.5118680172595,3873.5118680172595,3876.140139864075,3896.953798726954
117,3926.0016803470544,3926.0016803470544,3937.4931607017934,3961.810065127022
118,3966.075863130374,3966.075863130374,3974.1986235455524,3986.665775312846
119,4022.2686730598407,4022.2686730598407,4032.888682460854,4046.982968575408
120,4062.7289263809334,4062.7289263809334,4064.3371082868703,4081.5828430062024
121,4119.552483386124,4119.552483386124,4140.919447890099,4157.4403204416785
122,4154.7038910262045,4154.7038910262045,4193.826589881296,4206.335445699931
123,4167.616741442363,4193.826589881296,4206.335445699931,4218.74171926734
124,4179.881749354964,4194.005025390213,4218.74171926734,4234.033067240673
125,4197.1398581118965,4197.1398581118965,4234.033067240673,4250.887222780567
126,4249.500914864508,4249.500914864508,4256.800890940188,4269.013427166706
127,4282.496683952935,4282.496683952935,4283.266877683058,4298.236634500831
128,4306.239072927492,4306.239072927492,4307.5494522393465,4317.251214761411
129,4344.461174036377,4344.461174036377,4358.035043673093,4376.299284868244
130,4360.692196848878,4360.692196848878,4376.299284868244,4393.93896373974
131,4374.676365108638,4374.676365108638,4393.93896373974,4408.4476539371535
132,4394.82754223463,4394.82754223463,4408.4476539371535,4426.157477097449
133,4442.426403608154,4442.426403608154,4449.719192474967,4469.939065741782
134,4500.733047167766,4500.733047167766,4515.443819120527,4531.042178114953
135,4539.638413742586,4539.638413742586,4542.108409726734,4556.618619707322
136,4590.945791090829,4590.945791090829,4595.281650414415,4608.980919324172
137,4624.273144650911,4624.273144650911,4624.890932067078,4641.982354473339
138,4669.284571624289,4669.284571624289,4696.862534168306,4712.244785919655
139,4694.668649810257,4696.862534168306,4714.890561830491,4730.785068930437
140,4721.644512321853,4721.644512321853,4742.644312752125,4762.9721767318415
141,4770.20780099633,4770.20780099633,4773.022008275527,4788.495229890008
142,4783.98817435113,4783.98817435113,4788.495229890008,4808.324464956624
143,4801.90095771953,4801.90095771953,4825.758285285069,4844.90325901748
144,4836.0262502065825,4836.0262502065825,4852.362102930099,4869.198477365224
145,4873.247152341271,4873.247152341271,4882.456956989861,4899.10104308782
146,4928.389885487175,4928.389885487175,4982.252976934117,5005.465084916751
147,4957.180589713097,4982.252976934117,5005.465084916751,5022.265386245529
148,5013.191232362521,5013.191232362521,5022.265386245529,5041.792881415412
149,5039.018577746521,5039.018577746521,5053.244055044096,5067.965994199196
150,5069.785328075273,5069.785328075273,5072.445039622282,5092.134744418064
151,5112.388676990251,5112.388676990251,5122.241029285202,5139.058623847055
152,5133.868463887267,5133.868463887267,5144.129311616534,5159.167929520407
153,5183.4785986091065,5183.4785986091065,5186.894097137514,5202.816819985743
154,5196.057023003662,5196.057023003662,5213.111066449883,5230.259367229127
155,5237.042091015028,5237.042091015028,5259.7604370713525,5275.171391265729
156,5268.822913292712,5268.822913292712,5296.239944704374,5311.305341106746
157,5314.066497842236,5314.066497842236,5318.758462790156,5338.869792415084
158,5370.9688645354245,5370.9688645354245,5381.176453882942,5400.174448464094
159,5411.468202958562,5411.468202958562,5423.883102099431,5439.659347308975
160,5422.903614106655,5423.883102099431,5439.659347308975,5457.545973603323
161,5445.845328229476,5445.845328229476,5457.545973603323,5474.838819923719
162,5478.526152059863,5478.526152059863,5505.880855939771,5525.2527202555975
163,5492.991117749429,5505.880855939771,5525.2527202555975,5538.915408133126
164,5528.0980833139565,5528.0980833139565,5538.915408133126,5558.301351890702
165,5570.767675118682,5570.767675118682,5578.609586731021,5588.822776764777
166,5598.040023392867,5598.040023392867,5645.5314325360605,5659.511183887487
167,5633.671677024988,5645.5314325360605,5665.196294218831,5681.607183635658
168,5667.978175644664,5667.978175644664,5681.607183635658,5694.842979949155
169,5689.837837234936,5689.837837234936,5694.842979949155,5708.2799467165105
170,5719.855885339657,5719.855885339657,5722.502200326975,5740.0352249766065
171,5742.11283063213,5742.11283063213,5743.735020819097,5756.5560894051205
172,5766.409064826342,5766.409064826342,5778.384893351549,5793.6738871222715
173,5818.448498118884,5818.448498118884,5824.123617675055,5845.026454194024
174,5851.176939552571,5851.176939552571,5860.721862240833,5873.728810116505
175,5882.901466050609,5882.901466050609,5882.9890824814665,5893.882473618303
176,5898.815101423722,5898.815101423722,5900.058222838175,5921.846738909917
177,5926.491345963256,5926.491345963256,5933.764150335435,5953.245109213839
178,5945.739345945323,5945.739345945323,5956.12089500835,5976.170176996273
179,5970.170303665715,5970.170303665715,5977.537117607585,5993.2722447908145
180,5999.645243131731,5999.645243131731,6000.930376027459,6019.836720404272
181,6023.033925332492,6023.033925332492,6027.421540984273,6040.64460028321
182,6049.406154599769,6049.406154599769,6072.488505621768,6090.302400053918
183,6071.4468819623435,6072.488505621768,6090.302400053918,6111.313228897395
184,6088.529747861578,6088.529747861578,6111.313228897395,6126.332272346612
185,6137.1109104854,6137.1109104854,6149.813781039931,6167.7299295715075
186,6154.403404730534,6154.403404730534,6167.7299295715075,6178.51299444961
187,6207.148818328178,6207.148818328178,6248.755861737577,6266.069173916932
188,6244.160605814605,6248.755861737577,6288.5571213163685,6304.268371660562
189,6283.422624129179,6288.5571213163685,6304.268371660562,6316.461220982525
190,6309.920423859918,6309.920423859918,6316.461220982525,6331.824109406049
191,6335.554186484635,6335.554186484635,6336.954720574495,6354.149543527722
192,6391.569051411643,6391.569051411643,6392.121615214081,6405.629654950647
193,6440.732897466887,6440.732897466887,6443.147930261519,6457.997185681984
194,6477.355389399739,6477.355389399739,6478.098355115688,6491.8798646350215
195,6511.184799897152,6511.184799897152,6530.702770835653,6543.352474566738
196,6562.531585466057,6562.531585466057,6567.9523396563545,6577.705404485383
197,6606.698803014807,6606.698803014807,6666.813603515756,6677.869339346243
198,6660.9722654861625,6666.813603515756,6677.869339346243,6698.758718651721
199,6707.430552957599,6707.430552957599,6711.290684311113,6730.056683519122
200,6765.414867733654,6765.414867733654,6772.883217027062,6792.548249663937
201,6782.234941556467,6782.234941556467,6798.937387725479,6816.885415470984
202,6827.98014540926,6827.98014540926,6842.252593797363,6856.308048175482
203,6858.5249706423,6858.5249706423,6882.407119953792,6896.4840579928195
204,6891.942033724988,6891.942033724988,6901.133133800058,6913.579827291988
205,6904.059816207423,6904.059816207423,6913.579827291988,6936.733159811126
206,6960.665830467236,6960.665830467236,6963.034347501406,6979.108338353386
207,6983.77988685683,6983.77988685683,6986.40391277762,7000.138576792011
208,7031.258381129672,7031.258381129672,7043.26047511528,7060.848177091377
209,7089.623567776458,7089.623567776458,7107.905615052602,7124.5109830012925
210,7108.462177746234,7108.462177746234,7149.214783302238,7167.326995549685
211,7162.399303781728,7162.399303781728,7180.231845231575,7197.933657302196
212,7217.480779728729,7217.480779728729,7228.523989644626,7241.278013510442
213,7232.277646305076,7232.277646305076,7246.474958489516,7262.4364499818
214,7262.713172622467,7262.713172622467,7269.658676378396,7285.374571173719
215,7292.366628299884,7292.366628299884,7294.852818998081,7307.220049511936
216,7326.97177571232,7326.97177571232,7332.366219179524,7351.597180927051
217,7382.159207241297,7382.159207241297,7386.012525675201,7404.771559743397
218,7430.504411097168,7430.504411097168,7451.567619388301,7467.57405353742
219,7447.566716895029,7451.567619388301,7467.57405353742,7483.327932236038
220,7503.32514530048,7503.32514530048,7522.354639651323,7541.711630657899
221,7527.079431207908,7527.079431207908,7542.187792827842,7558.062106211868
222,7573.401882871846,7573.401882871846,7578.427342768353,7591.050008553817
223,7611.813132292323,7611.813132292323,7617.352354458611,7633.927655403721
224,7666.099910826085,7666.099910826085,7683.575977832978,7700.216347096413
225,7709.444775244202,7709.444775244202,7724.05087644137,7738.995938128449
226,7738.500931336207,7738.500931336207,7751.085219143676,7768.767510908181
227,7796.160638955793,7796.160638955793,7800.9699394454865,7813.868944817481
228,7831.929241525313,7831.929241525313,7875.5198571463425,7895.978251731056
229,7867.812950984653,7875.5198571463425,7895.978251731056,7911.9684121038335
230,7883.089243943768,7892.819146473717,7911.9684121038335,7931.259928138812
231,7911.313560127993,7911.313560127993,7931.259928138812,7944.483397085034
232,7952.35751237025,7952.35751237025,7962.742366135771,7974.890734643571
233,7971.890822052044,7971.890822052044,8004.511733699184,8023.190662853936
234,8014.0502175832835,8014.0502175832835,8024.022753272426,8043.863612962183
235,8060.280679237897,8060.280679237897,8065.774676900408,8083.099409418443
236,8102.406124934828,8102.406124934828,8103.615802945774,8112.806739144166
237,8122.623394822651,8122.623394822651,8123.1671585946415,8138.19415238657
238,8146.302271579498,8146.302271579498,8147.12086289943,8166.349308126101
239,8202.220620164007,8202.220620164007,8202.417536091914,8217.502715279792
240,8223.104189928283,8223.104189928283,8238.177360609834,8257.557513263278
241,8255.374318728567,8255.374318728567,8272.67758275772,8292.417279949306
242,8296.923010890456,8296.923010890456,8329.461979153473,8340.386319256482
243,8351.948795387725,8351.948795387725,8353.771461692468,8372.542383200707
244,8390.943645416815,8390.943645416815,8391.648723108407,8404.185932745317
245,8409.28584299022,8409.28584299022,8414.020178198487,8428.401560085691
246,8451.687620912064,8451.687620912064,8468.040164646183,8482.702198495243
247,8502.937811962951,8502.937811962951,8505.649219951385,8518.109006866653
248,8537.410607713426,8537.410607713426,8542.889330035106,8564.191916025587
249,8591.440063718146,8591.440063718146,8607.691545973952,8625.370421475292
250,8647.005201223907,8647.005201223907,8671.903479446117,8688.356833684998
251,8662.829773544187,8671.903479446117,8688.356833684998,8708.774592003549
252,8714.424533411006,8714.424533411006,8735.048370892653,8754.762366779732
253,8737.985013345275,8737.985013345275,8754.762366779732,8770.803908369853
254,8761.477103918767,8761.477103918767,8770.803908369853,8785.68866076255
255,8818.519012086865,8818.519012086865,8826.476989914816,8841.460816531751
256,8848.27712567322,8848.27712567322,8853.529710057132,8870.791512917473
